,Hearbeat ID,Ground Truth,Predicted Category,Comparison Result
0,74698,2,2,1
1,74700,2,2,1
2,74703,2,2,1
3,74705,2,2,1
4,74706,2,2,1
5,74710,2,2,1
6,74713,2,2,1
7,74714,2,2,1
8,74716,2,2,1
9,74717,2,2,1
10,74719,2,2,1
11,74720,2,2,1
12,74726,2,2,1
13,74730,2,2,1
14,74732,2,2,1
15,74733,2,0,0
16,74734,2,2,1
17,74737,2,2,1
18,74739,2,2,1
19,74743,2,2,1
20,74745,2,2,1
21,74747,2,2,1
22,74749,2,1,0
23,74750,2,2,1
24,74752,2,2,1
25,74754,2,2,1
26,74756,2,2,1
27,74759,2,2,1
28,74761,2,2,1
29,74762,2,2,1
30,74764,2,2,1
31,74765,2,2,1
32,74767,2,2,1
33,74769,2,2,1
34,74770,2,2,1
35,74771,2,2,1
36,74772,2,2,1
37,74773,2,2,1
38,74774,2,2,1
39,74775,2,2,1
40,74778,2,2,1
41,74779,2,2,1
42,74780,2,2,1
43,74783,2,2,1
44,74784,2,2,1
45,74786,2,2,1
46,74789,2,2,1
47,74790,2,2,1
48,74792,2,2,1
49,74794,2,2,1
50,74801,2,2,1
51,74802,2,2,1
52,74804,2,2,1
53,74805,2,2,1
54,74807,2,2,1
55,74808,2,2,1
56,74810,2,2,1
57,74811,2,1,0
58,74812,2,2,1
59,74813,2,2,1
60,74818,2,2,1
61,74820,2,2,1
62,74821,2,2,1
63,74822,2,2,1
64,74824,2,2,1
65,74829,2,2,1
66,74830,2,2,1
67,74831,2,2,1
68,74837,2,2,1
69,74838,2,2,1
70,74842,2,2,1
71,74843,2,2,1
72,74848,2,3,0
73,74849,2,2,1
74,74852,2,2,1
75,74853,2,2,1
76,74856,2,2,1
77,74857,2,2,1
78,74861,2,2,1
79,74864,2,2,1
80,74871,2,2,1
81,74872,2,2,1
82,74874,2,0,0
83,74875,2,2,1
84,74878,2,2,1
85,74879,2,2,1
86,74882,2,2,1
87,74886,2,2,1
88,74888,2,2,1
89,74890,2,2,1
90,74891,2,2,1
91,74893,2,2,1
92,74894,2,1,0
93,74895,2,2,1
94,74896,2,2,1
95,74897,2,2,1
96,74901,2,2,1
97,74902,2,2,1
98,74904,2,2,1
99,74906,2,2,1
100,74908,2,1,0
101,74910,2,2,1
102,74912,2,2,1
103,74917,2,2,1
104,74918,2,2,1
105,74921,2,2,1
106,74922,2,2,1
107,74926,2,2,1
108,74928,2,2,1
109,74930,2,2,1
110,74935,2,3,0
111,74936,2,2,1
112,74937,2,2,1
113,74939,2,2,1
114,74941,2,2,1
115,74942,2,2,1
116,74943,2,2,1
117,74948,2,2,1
118,74951,2,2,1
119,74953,2,2,1
120,74954,2,2,1
121,74958,2,2,1
122,74961,2,2,1
123,74967,2,2,1
124,74969,2,2,1
125,74972,2,2,1
126,74976,2,3,0
127,74978,2,2,1
128,74979,2,2,1
129,74980,2,2,1
130,74986,2,2,1
131,74987,2,2,1
132,74989,2,2,1
133,74992,2,2,1
134,74994,2,2,1
135,74998,2,2,1
136,75002,2,2,1
137,75005,2,2,1
138,75006,2,2,1
139,75008,2,2,1
140,75013,2,2,1
141,75016,2,2,1
142,75018,2,2,1
143,75022,2,2,1
144,75024,2,2,1
145,75026,2,2,1
146,75027,2,2,1
147,75031,2,2,1
148,75035,2,2,1
149,75036,2,2,1
150,75037,2,2,1
151,75038,2,2,1
152,75039,2,2,1
153,75046,2,2,1
154,75047,2,2,1
155,75048,2,2,1
156,75050,2,2,1
157,75052,2,2,1
158,75053,2,2,1
159,75054,2,2,1
160,75058,2,2,1
161,75060,2,2,1
162,75061,2,2,1
163,75062,2,2,1
164,75067,2,2,1
165,75069,2,2,1
166,75070,2,2,1
167,75078,2,2,1
168,75082,2,2,1
169,75087,2,2,1
170,75088,2,2,1
171,75089,2,2,1
172,75090,2,2,1
173,75091,2,2,1
174,75094,2,2,1
175,75097,2,2,1
176,75098,2,2,1
177,75099,2,2,1
178,75108,2,2,1
179,75109,2,2,1
180,75112,2,2,1
181,75113,2,2,1
182,75116,2,2,1
183,75122,2,2,1
184,75124,2,2,1
185,75125,2,2,1
186,75126,2,2,1
187,75127,2,2,1
188,75131,2,2,1
189,75132,2,2,1
190,75134,2,2,1
191,75135,2,2,1
192,75138,2,2,1
193,75139,2,1,0
194,75143,2,2,1
195,75144,2,2,1
196,75147,2,2,1
197,75151,2,2,1
198,75152,2,1,0
199,75153,2,2,1
200,75154,2,2,1
201,75155,2,2,1
202,75156,2,1,0
203,75162,2,2,1
204,75165,2,2,1
205,75166,2,2,1
206,75169,2,2,1
207,75170,2,2,1
208,75173,2,2,1
209,75175,2,2,1
210,75177,2,3,0
211,75179,2,2,1
212,75180,2,2,1
213,75188,2,2,1
214,75196,2,2,1
215,75200,2,2,1
216,75205,2,2,1
217,75206,2,2,1
218,75210,2,2,1
219,75211,2,2,1
220,75213,2,3,0
221,75220,2,2,1
222,75221,2,2,1
223,75226,2,2,1
224,75227,2,2,1
225,75229,2,2,1
226,75231,2,2,1
227,75232,2,2,1
228,75234,2,2,1
229,75236,2,2,1
230,75238,2,2,1
231,75241,2,2,1
232,75242,2,2,1
233,75243,2,2,1
234,75245,2,3,0
235,75246,2,3,0
236,75249,2,2,1
237,75250,2,2,1
238,75251,2,2,1
239,75252,2,2,1
240,75254,2,2,1
241,75256,2,2,1
242,75258,2,3,0
243,75260,2,3,0
244,75262,2,2,1
245,75263,2,2,1
246,75266,2,2,1
247,75267,2,2,1
248,75268,2,2,1
249,75269,2,2,1
250,75275,2,2,1
251,75277,2,2,1
252,75278,2,2,1
253,75284,2,2,1
254,75285,2,2,1
255,75288,2,2,1
256,75289,2,2,1
257,75291,2,2,1
258,75292,2,2,1
259,75294,2,2,1
260,75297,2,2,1
261,75298,2,2,1
262,75302,2,2,1
263,75303,2,2,1
264,75304,2,2,1
265,75305,2,2,1
266,75307,2,2,1
267,75309,2,2,1
268,75310,2,2,1
269,75316,2,2,1
270,75317,2,0,0
271,75318,2,2,1
272,75323,2,2,1
273,75326,2,2,1
274,75327,2,2,1
275,75331,2,2,1
276,75332,2,2,1
277,75333,2,2,1
278,75334,2,2,1
279,75341,2,2,1
280,75343,2,2,1
281,75345,2,2,1
282,75346,2,2,1
283,75347,2,2,1
284,75348,2,2,1
285,75349,2,2,1
286,75350,2,2,1
287,75351,2,2,1
288,75352,2,2,1
289,75353,2,2,1
290,75356,2,2,1
291,75357,2,2,1
292,75358,2,2,1
293,75360,2,2,1
294,75362,2,2,1
295,75366,2,2,1
296,75367,2,2,1
297,75368,2,2,1
298,75374,2,2,1
299,75375,2,2,1
300,75386,2,3,0
301,75389,2,2,1
302,75391,2,2,1
303,75393,2,2,1
304,75395,2,2,1
305,75398,2,2,1
306,75399,2,2,1
307,75401,2,2,1
308,75402,2,2,1
309,75403,2,2,1
310,75404,2,2,1
311,75405,2,2,1
312,75406,2,2,1
313,75410,2,2,1
314,75412,2,2,1
315,75416,2,2,1
316,75419,2,2,1
317,75421,2,2,1
318,75428,2,2,1
319,75430,2,2,1
320,75432,2,2,1
321,75437,2,2,1
322,75439,2,2,1
323,75440,2,2,1
324,75445,2,2,1
325,75446,2,2,1
326,75447,2,2,1
327,75449,2,2,1
328,75450,2,2,1
329,75451,2,2,1
330,75454,2,2,1
331,75455,2,2,1
332,75458,2,2,1
333,75459,2,1,0
334,75460,2,2,1
335,75462,2,2,1
336,75465,2,2,1
337,75467,2,2,1
338,75468,2,2,1
339,75470,2,2,1
340,75475,2,2,1
341,75476,2,2,1
342,75477,2,2,1
343,75478,2,3,0
344,75479,2,2,1
345,75481,2,2,1
346,75482,2,2,1
347,75484,2,2,1
348,75488,2,2,1
349,75491,2,2,1
350,75498,2,2,1
351,75499,2,2,1
352,75502,2,2,1
353,75504,2,2,1
354,75507,2,2,1
355,75508,2,2,1
356,75509,2,2,1
357,75513,2,2,1
358,75519,2,2,1
359,75520,2,2,1
360,75524,2,2,1
361,75526,2,2,1
362,75528,2,2,1
363,75530,2,2,1
364,75534,2,2,1
365,75545,2,2,1
366,75546,2,2,1
367,75548,2,2,1
368,75550,2,2,1
369,75551,2,2,1
370,75554,2,2,1
371,75555,2,2,1
372,75556,2,2,1
373,75557,2,2,1
374,75560,2,2,1
375,75563,2,0,0
376,75564,2,2,1
377,75568,2,2,1
378,75569,2,2,1
379,75570,2,2,1
380,75572,2,2,1
381,75574,2,2,1
382,75575,2,2,1
383,75576,2,2,1
384,75577,2,2,1
385,75579,2,2,1
386,75580,2,2,1
387,75581,2,2,1
388,75584,2,2,1
389,75585,2,4,0
390,75591,2,2,1
391,75593,2,2,1
392,75594,2,2,1
393,75597,2,2,1
394,75599,2,2,1
395,75603,2,2,1
396,75604,2,2,1
397,75609,2,2,1
398,75611,2,2,1
399,75613,2,2,1
400,75625,2,3,0
401,75627,2,2,1
402,75629,2,2,1
403,75632,2,2,1
404,75634,2,2,1
405,75642,2,2,1
406,75644,2,2,1
407,75657,2,2,1
408,75658,2,1,0
409,75661,2,2,1
410,75665,2,2,1
411,75666,2,2,1
412,75668,2,2,1
413,75669,2,1,0
414,75670,2,2,1
415,75671,2,2,1
416,75674,2,2,1
417,75678,2,1,0
418,75679,2,2,1
419,75687,2,2,1
420,75688,2,2,1
421,75693,2,2,1
422,75694,2,2,1
423,75697,2,2,1
424,75707,2,1,0
425,75708,2,2,1
426,75709,2,1,0
427,75710,2,2,1
428,75713,2,2,1
429,75715,2,2,1
430,75717,2,3,0
431,75720,2,2,1
432,75730,2,2,1
433,75731,2,3,0
434,75733,2,2,1
435,75736,2,2,1
436,75740,2,2,1
437,75741,2,2,1
438,75744,2,2,1
439,75745,2,1,0
440,75746,2,2,1
441,75752,2,3,0
442,75757,2,2,1
443,75758,2,2,1
444,75759,2,2,1
445,75763,2,2,1
446,75764,2,2,1
447,75767,2,2,1
448,75770,2,2,1
449,75772,2,2,1
450,75774,2,2,1
451,75775,2,1,0
452,75778,2,2,1
453,75785,2,2,1
454,75787,2,2,1
455,75789,2,2,1
456,75790,2,2,1
457,75792,2,2,1
458,75795,2,2,1
459,75796,2,2,1
460,75797,2,2,1
461,75805,2,2,1
462,75807,2,3,0
463,75810,2,2,1
464,75812,2,2,1
465,75816,2,2,1
466,75819,2,2,1
467,75820,2,2,1
468,75822,2,2,1
469,75823,2,2,1
470,75828,2,2,1
471,75830,2,2,1
472,75831,2,2,1
473,75835,2,2,1
474,75836,2,2,1
475,75839,2,0,0
476,75843,2,2,1
477,75849,2,2,1
478,75850,2,2,1
479,75855,2,1,0
480,75859,2,2,1
481,75860,2,2,1
482,75861,2,2,1
483,75862,2,2,1
484,75864,2,3,0
485,75866,2,2,1
486,75869,2,2,1
487,75871,2,2,1
488,75877,2,2,1
489,75878,2,2,1
490,75879,2,2,1
491,75881,2,2,1
492,75882,2,2,1
493,75883,2,2,1
494,75888,2,2,1
495,75889,2,2,1
496,75890,2,2,1
497,75891,2,2,1
498,75892,2,2,1
499,75893,2,2,1
500,75895,2,2,1
501,75896,2,2,1
502,75899,2,2,1
503,75900,2,2,1
504,75902,2,2,1
505,75903,2,2,1
506,75906,2,2,1
507,75907,2,2,1
508,75908,2,2,1
509,75909,2,2,1
510,75912,2,2,1
511,75914,2,2,1
512,75915,2,2,1
513,75917,2,2,1
514,75919,2,2,1
515,75921,2,2,1
516,75922,2,2,1
517,75923,2,2,1
518,75925,2,2,1
519,75928,2,2,1
520,75930,2,2,1
521,75931,2,2,1
522,75933,2,2,1
523,75934,2,2,1
524,75935,2,2,1
525,75937,2,2,1
526,75938,2,2,1
527,75942,2,2,1
528,75943,2,2,1
529,75945,2,2,1
530,75946,2,2,1
531,75947,2,1,0
532,75948,2,2,1
533,75951,2,2,1
534,75952,2,2,1
535,75953,2,2,1
536,75958,2,2,1
537,75959,2,2,1
538,75965,2,2,1
539,75966,2,2,1
540,75967,2,2,1
541,75968,2,2,1
542,75973,2,2,1
543,75978,2,2,1
544,75981,2,2,1
545,75982,2,2,1
546,75986,2,2,1
547,75987,2,2,1
548,75990,2,3,0
549,75992,2,2,1
550,75997,2,2,1
551,75999,2,2,1
552,76001,2,2,1
553,76002,2,2,1
554,76003,2,2,1
555,76004,2,2,1
556,76009,2,2,1
557,76011,2,2,1
558,76013,2,2,1
559,76018,2,2,1
560,76020,2,2,1
561,76025,2,2,1
562,76027,2,2,1
563,76030,2,2,1
564,76031,2,2,1
565,76033,2,2,1
566,76035,2,2,1
567,76036,2,2,1
568,76039,2,2,1
569,76041,2,2,1
570,76042,2,1,0
571,76046,2,2,1
572,76047,2,2,1
573,76048,2,2,1
574,76050,2,2,1
575,76052,2,2,1
576,76053,2,2,1
577,76055,2,2,1
578,76056,2,2,1
579,76057,2,2,1
580,76060,2,2,1
581,76061,2,2,1
582,76063,2,2,1
583,76065,2,2,1
584,76066,2,2,1
585,76067,2,2,1
586,76069,2,2,1
587,76072,2,2,1
588,76075,2,2,1
589,76076,2,2,1
590,76077,2,2,1
591,76081,2,2,1
592,76084,2,2,1
593,76086,2,2,1
594,76088,2,2,1
595,76090,2,2,1
596,76095,2,2,1
597,76096,2,2,1
598,76097,2,2,1
599,76100,2,2,1
600,76102,2,2,1
601,76103,2,2,1
602,76104,2,2,1
603,76106,2,2,1
604,76108,2,2,1
605,76112,2,2,1
606,76114,2,2,1
607,76116,2,2,1
608,76118,2,2,1
609,76120,2,2,1
610,76123,2,2,1
611,76124,2,2,1
612,76125,2,2,1
613,76127,2,2,1
614,76129,2,2,1
615,76131,2,3,0
616,76132,2,2,1
617,76134,2,2,1
618,76135,2,2,1
619,76139,2,2,1
620,76141,2,2,1
621,76143,2,2,1
622,76145,2,2,1
623,76146,2,2,1
624,76159,2,2,1
625,76160,2,2,1
626,76161,2,2,1
627,76166,2,2,1
628,76167,2,2,1
629,76169,2,2,1
630,76170,2,2,1
631,76175,2,2,1
632,76179,2,2,1
633,76180,2,2,1
634,76181,2,2,1
635,76183,2,2,1
636,76184,2,2,1
637,76185,2,2,1
638,76187,2,2,1
639,76188,2,2,1
640,76189,2,0,0
641,76190,2,2,1
642,76192,2,2,1
643,76194,2,2,1
644,76197,2,2,1
645,76199,2,1,0
646,76200,2,2,1
647,76201,2,2,1
648,76202,2,2,1
649,76205,2,2,1
650,76208,2,2,1
651,76210,2,2,1
652,76212,2,2,1
653,76214,2,2,1
654,76216,2,2,1
655,76217,2,3,0
656,76218,2,2,1
657,76219,2,2,1
658,76222,2,2,1
659,76223,2,1,0
660,76226,2,2,1
661,76227,2,2,1
662,76229,2,2,1
663,76234,2,2,1
664,76238,2,2,1
665,76239,2,2,1
666,76240,2,2,1
667,76252,2,1,0
668,76253,2,2,1
669,76254,2,2,1
670,76258,2,2,1
671,76259,2,2,1
672,76260,2,2,1
673,76261,2,2,1
674,76264,2,2,1
675,76270,2,2,1
676,76271,2,2,1
677,76272,2,2,1
678,76277,2,2,1
679,76278,2,2,1
680,76279,2,2,1
681,76285,2,2,1
682,76292,2,2,1
683,76295,2,2,1
684,76296,2,2,1
685,76297,2,2,1
686,76299,2,2,1
687,76304,2,2,1
688,76305,2,2,1
689,76308,2,2,1
690,76310,2,2,1
691,76312,2,3,0
692,76317,2,3,0
693,76318,2,2,1
694,76320,2,2,1
695,76321,2,2,1
696,76322,2,2,1
697,76325,2,2,1
698,76328,2,2,1
699,76332,2,2,1
700,76333,2,2,1
701,76336,2,2,1
702,76338,2,2,1
703,76339,2,2,1
704,76341,2,2,1
705,76342,2,2,1
706,76344,2,2,1
707,76346,2,2,1
708,76349,2,2,1
709,76350,2,3,0
710,76352,2,2,1
711,76356,2,2,1
712,76357,2,2,1
713,76359,2,2,1
714,76363,2,2,1
715,76365,2,2,1
716,76370,2,2,1
717,76371,2,2,1
718,76378,2,2,1
719,76382,2,2,1
720,76389,2,2,1
721,76390,2,3,0
722,76391,2,2,1
723,76392,2,2,1
724,76394,2,2,1
725,76395,2,2,1
726,76396,2,2,1
727,76399,2,2,1
728,76402,2,2,1
729,76405,2,2,1
730,76409,2,2,1
731,76413,2,2,1
732,76414,2,2,1
733,76416,2,1,0
734,76417,2,2,1
735,76423,2,2,1
736,76425,2,2,1
737,76426,2,2,1
738,76428,2,2,1
739,76429,2,2,1
740,76431,2,3,0
741,76433,2,2,1
742,76440,2,2,1
743,76445,2,3,0
744,76446,2,2,1
745,76447,2,2,1
746,76449,2,2,1
747,76452,2,2,1
748,76453,2,2,1
749,76454,2,2,1
750,76460,2,2,1
751,76463,2,2,1
752,76467,2,2,1
753,76468,2,2,1
754,76469,2,3,0
755,76471,2,3,0
756,76473,2,2,1
757,76474,2,2,1
758,76475,2,2,1
759,76483,2,2,1
760,76486,2,2,1
761,76488,2,3,0
762,76492,2,2,1
763,76495,2,2,1
764,76496,2,2,1
765,76497,2,2,1
766,76498,2,2,1
767,76500,2,2,1
768,76503,2,2,1
769,76504,2,2,1
770,76506,2,2,1
771,76508,2,2,1
772,76509,2,2,1
773,76511,2,2,1
774,76512,2,2,1
775,76515,2,2,1
776,76516,2,2,1
777,76517,2,0,0
778,76519,2,2,1
779,76524,2,2,1
780,76527,2,2,1
781,76530,2,2,1
782,76531,2,2,1
783,76533,2,2,1
784,76534,2,3,0
785,76535,2,2,1
786,76537,2,2,1
787,76538,2,2,1
788,76539,2,3,0
789,76544,2,2,1
790,76547,2,1,0
791,76548,2,2,1
792,76549,2,2,1
793,76550,2,2,1
794,76552,2,2,1
795,76553,2,2,1
796,76554,2,3,0
797,76555,2,2,1
798,76559,2,2,1
799,76567,2,2,1
800,76571,2,2,1
801,76572,2,2,1
802,76573,2,2,1
803,76576,2,2,1
804,76579,2,2,1
805,76583,2,2,1
806,76586,2,2,1
807,76588,2,2,1
808,76590,2,2,1
809,76591,2,3,0
810,76592,2,4,0
811,76593,2,2,1
812,76594,2,2,1
813,76596,2,2,1
814,76598,2,2,1
815,76601,2,2,1
816,76602,2,2,1
817,76606,2,2,1
818,76609,2,2,1
819,76612,2,2,1
820,76613,2,2,1
821,76614,2,3,0
822,76615,2,2,1
823,76616,2,2,1
824,76618,2,2,1
825,76620,2,2,1
826,76621,2,0,0
827,76622,2,2,1
828,76624,2,2,1
829,76625,2,2,1
830,76633,2,2,1
831,76636,2,2,1
832,76637,2,2,1
833,76638,2,2,1
834,76639,2,2,1
835,76641,2,2,1
836,76642,2,2,1
837,76646,2,2,1
838,76647,2,2,1
839,76648,2,2,1
840,76653,2,2,1
841,76655,2,3,0
842,76657,2,2,1
843,76659,2,2,1
844,76663,2,2,1
845,76664,2,2,1
846,76666,2,2,1
847,76670,2,2,1
848,76671,2,2,1
849,76674,2,2,1
850,76679,2,2,1
851,76680,2,2,1
852,76683,2,2,1
853,76684,2,2,1
854,76685,2,2,1
855,76686,2,2,1
856,76687,2,2,1
857,76693,2,2,1
858,76694,2,2,1
859,76695,2,2,1
860,76696,2,2,1
861,76698,2,2,1
862,76700,2,2,1
863,76704,2,2,1
864,76707,2,2,1
865,76710,2,2,1
866,76711,2,2,1
867,76712,2,2,1
868,76715,2,2,1
869,76716,2,2,1
870,76720,2,2,1
871,76722,2,2,1
872,76724,2,2,1
873,76725,2,2,1
874,76726,2,2,1
875,76728,2,2,1
876,76732,2,2,1
877,76735,2,2,1
878,76738,2,2,1
879,76742,2,2,1
880,76743,2,2,1
881,76746,2,2,1
882,76748,2,2,1
883,76751,2,3,0
884,76754,2,2,1
885,76755,2,2,1
886,76761,2,2,1
887,76763,2,0,0
888,76766,2,2,1
889,76767,2,2,1
890,76769,2,2,1
891,76775,2,2,1
892,76776,2,2,1
893,76777,2,2,1
894,76780,2,2,1
895,76782,2,2,1
896,76783,2,2,1
897,76784,2,2,1
898,76785,2,3,0
899,76786,2,2,1
900,76789,2,2,1
901,76792,2,2,1
902,76794,2,2,1
903,76803,2,3,0
904,76804,2,2,1
905,76806,2,2,1
906,76808,2,2,1
907,76810,2,2,1
908,76815,2,2,1
909,76817,2,2,1
910,76818,2,2,1
911,76821,2,2,1
912,76822,2,2,1
913,76823,2,2,1
914,76827,2,2,1
915,76828,2,0,0
916,76829,2,3,0
917,76830,2,2,1
918,76832,2,1,0
919,76833,2,2,1
920,76835,2,2,1
921,76836,2,2,1
922,76837,2,2,1
923,76838,2,2,1
924,76840,2,2,1
925,76842,2,2,1
926,76845,2,2,1
927,76846,2,2,1
928,76849,2,2,1
929,76853,2,2,1
930,76860,2,0,0
931,76861,2,2,1
932,76862,2,2,1
933,76868,2,2,1
934,76872,2,2,1
935,76873,2,2,1
936,76876,2,2,1
937,76877,2,2,1
938,76880,2,2,1
939,76888,2,0,0
940,76889,2,2,1
941,76891,2,2,1
942,76900,2,2,1
943,76903,2,2,1
944,76904,2,2,1
945,76905,2,2,1
946,76907,2,2,1
947,76908,2,2,1
948,76909,2,2,1
949,76910,2,2,1
950,76912,2,2,1
951,76914,2,2,1
952,76927,2,3,0
953,76929,2,2,1
954,76930,2,2,1
955,76933,2,2,1
956,76934,2,2,1
957,76936,2,2,1
958,76937,2,2,1
959,76938,2,2,1
960,76940,2,2,1
961,76941,2,2,1
962,76942,2,2,1
963,76951,2,2,1
964,76953,2,2,1
965,76954,2,2,1
966,76955,2,2,1
967,76960,2,2,1
968,76961,2,2,1
969,76963,2,2,1
970,76964,2,2,1
971,76965,2,2,1
972,76966,2,2,1
973,76968,2,2,1
974,76969,2,2,1
975,76971,2,2,1
976,76973,2,2,1
977,76974,2,2,1
978,76975,2,2,1
979,76976,2,2,1
980,76977,2,2,1
981,76982,2,2,1
982,76985,2,2,1
983,76986,2,3,0
984,76990,2,2,1
985,76992,2,2,1
986,76995,2,2,1
987,76997,2,2,1
988,76998,2,2,1
989,77000,2,2,1
990,77001,2,2,1
991,77002,2,2,1
992,77004,2,2,1
993,77005,2,2,1
994,77007,2,2,1
995,77010,2,4,0
996,77011,2,2,1
997,77013,2,2,1
998,77014,2,2,1
999,77016,2,1,0
1000,77022,2,2,1
1001,77024,2,2,1
1002,77025,2,2,1
1003,77026,2,1,0
1004,77027,2,2,1
1005,77028,2,3,0
1006,77029,2,2,1
1007,77034,2,2,1
1008,77035,2,1,0
1009,77038,2,2,1
1010,77039,2,2,1
1011,77040,2,2,1
1012,77041,2,2,1
1013,77048,2,2,1
1014,77049,2,2,1
1015,77050,2,2,1
1016,77052,2,2,1
1017,77053,2,2,1
1018,77057,2,2,1
1019,77060,2,2,1
1020,77062,2,2,1
1021,77063,2,2,1
1022,77064,2,2,1
1023,77066,2,2,1
1024,77073,2,3,0
1025,77077,2,2,1
1026,77079,2,2,1
1027,77082,2,2,1
1028,77083,2,2,1
1029,77084,2,2,1
1030,77089,2,2,1
1031,77090,2,2,1
1032,77092,2,2,1
1033,77097,2,2,1
1034,77098,2,2,1
1035,77102,2,2,1
1036,77103,2,2,1
1037,77104,2,2,1
1038,77107,2,2,1
1039,77108,2,2,1
1040,77109,2,2,1
1041,77111,2,2,1
1042,77112,2,2,1
1043,77117,2,2,1
1044,77121,2,2,1
1045,77122,2,2,1
1046,77123,2,1,0
1047,77125,2,2,1
1048,77127,2,2,1
1049,77128,2,2,1
1050,77129,2,2,1
1051,77131,2,2,1
1052,77134,2,2,1
1053,77141,2,2,1
1054,77145,2,2,1
1055,77146,2,2,1
1056,77148,2,3,0
1057,77149,2,2,1
1058,77150,2,2,1
1059,77151,2,2,1
1060,77153,2,2,1
1061,77155,2,2,1
1062,77156,2,2,1
1063,77157,2,2,1
1064,77158,2,2,1
1065,77161,2,2,1
1066,77163,2,2,1
1067,77164,2,2,1
1068,77165,2,2,1
1069,77167,2,2,1
1070,77169,2,2,1
1071,77170,2,2,1
1072,77171,2,2,1
1073,77173,2,2,1
1074,77174,2,2,1
1075,77175,2,2,1
1076,77176,2,2,1
1077,77177,2,2,1
1078,77178,2,2,1
1079,77183,2,2,1
1080,77186,2,2,1
1081,77189,2,2,1
1082,77190,2,2,1
1083,77194,2,2,1
1084,77195,2,2,1
1085,77197,2,2,1
1086,77198,2,2,1
1087,77199,2,2,1
1088,77200,2,2,1
1089,77201,2,2,1
1090,77205,2,2,1
1091,77206,2,2,1
1092,77207,2,2,1
1093,77208,2,2,1
1094,77211,2,2,1
1095,77212,2,2,1
1096,77213,2,2,1
1097,77215,2,2,1
1098,77216,2,2,1
1099,77217,2,2,1
1100,77218,2,2,1
1101,77219,2,2,1
1102,77221,2,2,1
1103,77222,2,2,1
1104,77224,2,2,1
1105,77228,2,2,1
1106,77230,2,2,1
1107,77234,2,2,1
1108,77235,2,2,1
1109,77238,2,3,0
1110,77240,2,2,1
1111,77243,2,2,1
1112,77244,2,2,1
1113,77247,2,2,1
1114,77250,2,2,1
1115,77257,2,2,1
1116,77259,2,2,1
1117,77261,2,2,1
1118,77262,2,2,1
1119,77263,2,2,1
1120,77264,2,2,1
1121,77265,2,2,1
1122,77270,2,2,1
1123,77271,2,2,1
1124,77277,2,2,1
1125,77280,2,2,1
1126,77284,2,2,1
1127,77286,2,2,1
1128,77289,2,2,1
1129,77291,2,2,1
1130,77292,2,2,1
1131,77293,2,2,1
1132,77297,2,2,1
1133,77302,2,2,1
1134,77306,2,3,0
1135,77315,2,0,0
1136,77319,2,2,1
1137,77321,2,2,1
1138,77322,2,2,1
1139,77324,2,2,1
1140,77325,2,2,1
1141,77329,2,2,1
1142,77330,2,2,1
1143,77332,2,2,1
1144,77334,2,2,1
1145,77339,2,2,1
1146,77344,2,2,1
1147,77346,2,2,1
1148,77348,2,2,1
1149,77350,2,2,1
1150,77351,2,0,0
1151,77352,2,2,1
1152,77354,2,2,1
1153,77355,2,2,1
1154,77356,2,2,1
1155,77362,2,2,1
1156,77367,2,2,1
1157,77369,2,2,1
1158,77370,2,2,1
1159,77371,2,2,1
1160,77373,2,2,1
1161,77378,2,2,1
1162,77379,2,2,1
1163,77381,2,2,1
1164,77382,2,1,0
1165,77383,2,2,1
1166,77384,2,0,0
1167,77385,2,2,1
1168,77388,2,2,1
1169,77389,2,2,1
1170,77395,2,2,1
1171,77396,2,2,1
1172,77401,2,2,1
1173,77402,2,2,1
1174,77403,2,2,1
1175,77405,2,2,1
1176,77408,2,2,1
1177,77411,2,2,1
1178,77412,2,2,1
1179,77413,2,0,0
1180,77414,2,1,0
1181,77416,2,2,1
1182,77417,2,2,1
1183,77419,2,2,1
1184,77421,2,2,1
1185,77422,2,2,1
1186,77423,2,2,1
1187,77425,2,3,0
1188,77429,2,2,1
1189,77430,2,2,1
1190,77433,2,2,1
1191,77436,2,2,1
1192,77439,2,2,1
1193,77445,2,2,1
1194,77446,2,2,1
1195,77447,2,2,1
1196,77449,2,2,1
1197,77454,2,2,1
1198,77455,2,2,1
1199,77462,2,2,1
1200,77464,2,2,1
1201,77465,2,2,1
1202,77468,2,2,1
1203,77470,2,2,1
1204,77472,2,2,1
1205,77473,2,2,1
1206,77476,2,1,0
1207,77478,2,2,1
1208,77481,2,2,1
1209,77482,2,2,1
1210,77483,2,2,1
1211,77485,2,2,1
1212,77487,2,0,0
1213,77488,2,1,0
1214,77491,2,2,1
1215,77492,2,2,1
1216,77493,2,2,1
1217,77495,2,2,1
1218,77496,2,2,1
1219,77503,2,2,1
1220,77505,2,2,1
1221,77507,2,2,1
1222,77508,2,2,1
1223,77510,2,2,1
1224,77512,2,2,1
1225,77518,2,2,1
1226,77519,2,2,1
1227,77521,2,2,1
1228,77522,2,2,1
1229,77523,2,2,1
1230,77525,2,2,1
1231,77526,2,2,1
1232,77527,2,2,1
1233,77529,2,2,1
1234,77530,2,2,1
1235,77533,2,2,1
1236,77540,2,2,1
1237,77542,2,2,1
1238,77545,2,2,1
1239,77548,2,2,1
1240,77549,2,2,1
1241,77551,2,2,1
1242,77552,2,2,1
1243,77553,2,2,1
1244,77554,2,2,1
1245,77556,2,2,1
1246,77563,2,2,1
1247,77568,2,2,1
1248,77569,2,2,1
1249,77572,2,2,1
1250,77577,2,2,1
1251,77579,2,2,1
1252,77580,2,2,1
1253,77583,2,2,1
1254,77584,2,2,1
1255,77585,2,2,1
1256,77588,2,2,1
1257,77589,2,2,1
1258,77597,2,2,1
1259,77598,2,2,1
1260,77600,2,2,1
1261,77602,2,2,1
1262,77606,2,2,1
1263,77608,2,2,1
1264,77611,2,2,1
1265,77612,2,2,1
1266,77613,2,2,1
1267,77614,2,2,1
1268,77625,2,2,1
1269,77628,2,2,1
1270,77630,2,2,1
1271,77631,2,2,1
1272,77632,2,2,1
1273,77633,2,2,1
1274,77636,2,2,1
1275,77637,2,2,1
1276,77640,2,2,1
1277,77641,2,2,1
1278,77642,2,2,1
1279,77644,2,2,1
1280,77647,2,2,1
1281,77648,2,2,1
1282,77652,2,2,1
1283,77654,2,3,0
1284,77655,2,2,1
1285,77657,2,2,1
1286,77664,2,2,1
1287,77665,2,2,1
1288,77666,2,0,0
1289,77671,2,2,1
1290,77672,2,2,1
1291,77673,2,2,1
1292,77674,2,2,1
1293,77675,2,2,1
1294,77677,2,2,1
1295,77679,2,2,1
1296,77680,2,3,0
1297,77681,2,2,1
1298,77682,2,2,1
1299,77683,2,3,0
1300,77685,2,2,1
1301,77686,2,2,1
1302,77692,2,2,1
1303,77694,2,2,1
1304,77696,2,2,1
1305,77697,2,2,1
1306,77701,2,2,1
1307,77702,2,2,1
1308,77704,2,2,1
1309,77707,2,2,1
1310,77711,2,2,1
1311,77712,2,2,1
1312,77713,2,2,1
1313,77714,2,2,1
1314,77715,2,2,1
1315,77721,2,2,1
1316,77724,2,2,1
1317,77729,2,3,0
1318,77730,2,2,1
1319,77736,2,2,1
1320,77737,2,2,1
1321,77738,2,2,1
1322,77740,2,2,1
1323,77741,2,2,1
1324,77742,2,2,1
1325,77744,2,2,1
1326,77745,2,2,1
1327,77746,2,2,1
1328,77747,2,2,1
1329,77748,2,2,1
1330,77749,2,2,1
1331,77751,2,2,1
1332,77757,2,2,1
1333,77759,2,2,1
1334,77760,2,2,1
1335,77763,2,2,1
1336,77764,2,2,1
1337,77765,2,2,1
1338,77766,2,0,0
1339,77767,2,2,1
1340,77768,2,2,1
1341,77769,2,2,1
1342,77772,2,1,0
1343,77773,2,2,1
1344,77775,2,2,1
1345,77779,2,2,1
1346,77781,2,2,1
1347,77786,2,2,1
1348,77788,2,2,1
1349,77789,2,2,1
1350,77790,2,2,1
1351,77793,2,2,1
1352,77796,2,2,1
1353,77797,2,2,1
1354,77800,2,2,1
1355,77801,2,2,1
1356,77805,2,3,0
1357,77807,2,2,1
1358,77811,2,2,1
1359,77812,2,2,1
1360,77814,2,2,1
1361,77815,2,2,1
1362,77816,2,2,1
1363,77818,2,2,1
1364,77819,2,2,1
1365,77826,2,2,1
1366,77828,2,2,1
1367,77833,2,1,0
1368,77834,2,2,1
1369,77836,2,2,1
1370,77837,2,2,1
1371,77838,2,2,1
1372,77842,2,2,1
1373,77843,2,2,1
1374,77844,2,2,1
1375,77845,2,2,1
1376,77846,2,2,1
1377,77848,2,2,1
1378,77849,2,2,1
1379,77850,2,2,1
1380,77855,2,2,1
1381,77857,2,2,1
1382,77858,2,2,1
1383,77859,2,2,1
1384,77860,2,2,1
1385,77864,2,3,0
1386,77865,2,2,1
1387,77870,2,2,1
1388,77871,2,2,1
1389,77872,2,2,1
1390,77873,2,2,1
1391,77878,2,2,1
1392,77879,2,2,1
1393,77881,2,0,0
1394,77886,2,2,1
1395,77891,2,2,1
1396,77894,2,2,1
1397,77895,2,2,1
1398,77897,2,2,1
1399,77899,2,2,1
1400,77905,2,2,1
1401,77907,2,2,1
1402,77916,2,2,1
1403,77917,2,2,1
1404,77921,2,2,1
1405,77924,2,2,1
1406,77925,2,2,1
1407,77926,2,2,1
1408,77927,2,2,1
1409,77930,2,2,1
1410,77931,2,2,1
1411,77932,2,2,1
1412,77933,2,2,1
1413,77934,2,2,1
1414,77941,2,2,1
1415,77942,2,3,0
1416,77943,2,2,1
1417,77946,2,2,1
1418,77948,2,2,1
1419,77955,2,2,1
1420,77957,2,2,1
1421,77960,2,2,1
1422,77967,2,2,1
1423,77968,2,2,1
1424,77970,2,2,1
1425,77971,2,2,1
1426,77972,2,2,1
1427,77976,2,2,1
1428,77978,2,2,1
1429,77979,2,2,1
1430,77980,2,2,1
1431,77982,2,2,1
1432,77983,2,2,1
1433,77987,2,2,1
1434,77990,2,2,1
1435,77991,2,2,1
1436,77992,2,2,1
1437,77997,2,3,0
1438,77999,2,2,1
1439,78000,2,2,1
1440,78002,2,2,1
1441,78004,2,2,1
1442,78005,2,2,1
1443,78006,2,2,1
1444,78009,2,2,1
1445,78012,2,2,1
1446,78014,2,2,1
1447,78016,2,2,1
1448,78017,2,2,1
1449,78019,2,2,1
1450,78021,2,2,1
1451,78022,2,2,1
1452,78024,2,2,1
1453,78025,2,2,1
1454,78026,2,2,1
1455,78027,2,2,1
1456,78028,2,3,0
1457,78029,2,2,1
1458,78030,2,2,1
1459,78031,2,2,1
1460,78033,2,2,1
1461,78034,2,2,1
1462,78036,2,2,1
1463,78040,2,2,1
1464,78041,2,2,1
1465,78043,2,3,0
1466,78044,2,2,1
1467,78045,2,2,1
1468,78048,2,2,1
1469,78049,2,1,0
1470,78050,2,2,1
1471,78052,2,2,1
1472,78053,2,2,1
1473,78056,2,1,0
1474,78057,2,2,1
1475,78058,2,2,1
1476,78060,2,3,0
1477,78062,2,2,1
1478,78069,2,2,1
1479,78070,2,2,1
1480,78073,2,2,1
1481,78078,2,2,1
1482,78082,2,2,1
1483,78083,2,2,1
1484,78085,2,2,1
1485,78087,2,2,1
1486,78088,2,2,1
1487,78092,2,2,1
1488,78094,2,2,1
1489,78099,2,2,1
1490,78101,2,2,1
1491,78103,2,2,1
1492,78109,2,2,1
1493,78114,2,2,1
1494,78115,2,2,1
1495,78118,2,1,0
1496,78120,2,2,1
1497,78124,2,2,1
1498,78125,2,2,1
1499,78126,2,2,1
1500,78127,2,2,1
1501,78128,2,2,1
1502,78129,2,2,1
1503,78131,2,2,1
1504,78136,2,2,1
1505,78137,2,2,1
1506,78140,2,2,1
1507,78141,2,2,1
1508,78144,2,2,1
1509,78147,2,2,1
1510,78148,2,2,1
1511,78150,2,2,1
1512,78151,2,2,1
1513,78153,2,2,1
1514,78154,2,2,1
1515,78156,2,2,1
1516,78159,2,2,1
1517,78163,2,2,1
1518,78164,2,2,1
1519,78167,2,2,1
1520,78170,2,2,1
1521,78171,2,2,1
1522,78172,2,3,0
1523,78173,2,2,1
1524,78175,2,2,1
1525,78177,2,2,1
1526,78180,2,2,1
1527,78181,2,2,1
1528,78183,2,2,1
1529,78184,2,2,1
1530,78186,2,2,1
1531,78187,2,2,1
1532,78188,2,2,1
1533,78193,2,2,1
1534,78196,2,2,1
1535,78197,2,2,1
1536,78200,2,2,1
1537,78204,2,2,1
1538,78205,2,2,1
1539,78206,2,2,1
1540,78209,2,2,1
1541,78210,2,2,1
1542,78214,2,2,1
1543,78218,2,2,1
1544,78221,2,2,1
1545,78226,2,2,1
1546,78228,2,2,1
1547,78230,2,2,1
1548,78234,2,2,1
1549,78236,2,2,1
1550,78237,2,2,1
1551,78239,2,2,1
1552,78241,2,2,1
1553,78243,2,2,1
1554,78244,2,2,1
1555,78245,2,2,1
1556,78249,2,2,1
1557,78251,2,2,1
1558,78253,2,2,1
1559,78257,2,2,1
1560,78258,2,2,1
1561,78265,2,2,1
1562,78269,2,2,1
1563,78271,2,2,1
1564,78276,2,2,1
1565,78278,2,2,1
1566,78281,2,2,1
1567,78282,2,2,1
1568,78288,2,2,1
1569,78289,2,2,1
1570,78290,2,2,1
1571,78291,2,2,1
1572,78292,2,3,0
1573,78293,2,2,1
1574,78298,2,2,1
1575,78299,2,2,1
1576,78300,2,2,1
1577,78302,2,2,1
1578,78303,2,2,1
1579,78304,2,2,1
1580,78306,2,2,1
1581,78309,2,2,1
1582,78312,2,2,1
1583,78315,2,2,1
1584,78316,2,2,1
1585,78318,2,2,1
1586,78319,2,2,1
1587,78320,2,2,1
1588,78321,2,2,1
1589,78322,2,2,1
1590,78327,2,2,1
1591,78337,2,1,0
1592,78339,2,2,1
1593,78340,2,2,1
1594,78341,2,2,1
1595,78343,2,2,1
1596,78345,2,2,1
1597,78346,2,0,0
1598,78348,2,2,1
1599,78349,2,2,1
1600,78350,2,2,1
1601,78351,2,2,1
1602,78352,2,2,1
1603,78357,2,1,0
1604,78361,2,2,1
1605,78362,2,2,1
1606,78363,2,2,1
1607,78365,2,2,1
1608,78368,2,2,1
1609,78369,2,2,1
1610,78372,2,2,1
1611,78374,2,2,1
1612,78375,2,2,1
1613,78376,2,2,1
1614,78378,2,2,1
1615,78381,2,2,1
1616,78382,2,1,0
1617,78384,2,0,0
1618,78386,2,2,1
1619,78387,2,2,1
1620,78390,2,2,1
1621,78391,2,2,1
1622,78393,2,2,1
1623,78396,2,2,1
1624,78397,2,2,1
1625,78398,2,2,1
1626,78399,2,2,1
1627,78401,2,3,0
1628,78402,2,2,1
1629,78405,2,2,1
1630,78407,2,2,1
1631,78408,2,2,1
1632,78409,2,2,1
1633,78410,2,1,0
1634,78411,2,2,1
1635,78413,2,3,0
1636,78414,2,2,1
1637,78416,2,2,1
1638,78418,2,2,1
1639,78420,2,2,1
1640,78421,2,2,1
1641,78423,2,2,1
1642,78425,2,2,1
1643,78429,2,2,1
1644,78431,2,2,1
1645,78440,2,2,1
1646,78447,2,2,1
1647,78451,2,2,1
1648,78453,2,2,1
1649,78455,2,2,1
1650,78458,2,2,1
1651,78462,2,1,0
1652,78463,2,2,1
1653,78464,2,0,0
1654,78466,2,2,1
1655,78467,2,2,1
1656,78468,2,3,0
1657,78469,2,2,1
1658,78470,2,2,1
1659,78471,2,3,0
1660,78475,2,2,1
1661,78480,2,2,1
1662,78488,2,2,1
1663,78489,2,2,1
1664,78491,2,2,1
1665,78493,2,2,1
1666,78494,2,2,1
1667,78500,2,2,1
1668,78501,2,2,1
1669,78503,2,2,1
1670,78506,2,2,1
1671,78510,2,2,1
1672,78511,2,2,1
1673,78513,2,1,0
1674,78514,2,2,1
1675,78515,2,2,1
1676,78520,2,2,1
1677,78522,2,3,0
1678,78523,2,2,1
1679,78528,2,2,1
1680,78529,2,2,1
1681,78533,2,2,1
1682,78536,2,2,1
1683,78538,2,2,1
1684,78539,2,2,1
1685,78548,2,2,1
1686,78557,2,2,1
1687,78560,2,2,1
1688,78563,2,2,1
1689,78569,2,2,1
1690,78574,2,2,1
1691,78575,2,2,1
1692,78579,2,2,1
1693,78580,2,2,1
1694,78581,2,2,1
1695,78582,2,2,1
1696,78585,2,3,0
1697,78587,2,2,1
1698,78588,2,2,1
1699,78590,2,2,1
1700,78592,2,3,0
1701,78594,2,2,1
1702,78596,2,2,1
1703,78598,2,2,1
1704,78601,2,2,1
1705,78604,2,2,1
1706,78608,2,2,1
1707,78612,2,2,1
1708,78615,2,2,1
1709,78617,2,2,1
1710,78621,2,2,1
1711,78625,2,2,1
1712,78626,2,2,1
1713,78627,2,2,1
1714,78628,2,2,1
1715,78635,2,2,1
1716,78636,2,2,1
1717,78639,2,2,1
1718,78640,2,2,1
1719,78644,2,2,1
1720,78647,2,2,1
1721,78649,2,2,1
1722,78651,2,2,1
1723,78652,2,2,1
1724,78654,2,2,1
1725,78655,2,2,1
1726,78657,2,2,1
1727,78658,2,2,1
1728,78659,2,2,1
1729,78660,2,2,1
1730,78661,2,2,1
1731,78662,2,2,1
1732,78665,2,2,1
1733,78667,2,2,1
1734,78668,2,2,1
1735,78671,2,2,1
1736,78672,2,2,1
1737,78673,2,2,1
1738,78675,2,2,1
1739,78676,2,2,1
1740,78677,2,2,1
1741,78678,2,2,1
1742,78680,2,2,1
1743,78681,2,2,1
1744,78682,2,2,1
1745,78684,2,1,0
1746,78688,2,2,1
1747,78689,2,2,1
1748,78691,2,2,1
1749,78695,2,2,1
1750,78696,2,2,1
1751,78698,2,2,1
1752,78700,2,2,1
1753,78704,2,2,1
1754,78706,2,2,1
1755,78709,2,2,1
1756,78710,2,2,1
1757,78712,2,2,1
1758,78713,2,2,1
1759,78717,2,2,1
1760,78718,2,2,1
1761,78720,2,2,1
1762,78723,2,2,1
1763,78726,2,3,0
1764,78730,2,2,1
1765,78731,2,2,1
1766,78732,2,2,1
1767,78733,2,2,1
1768,78736,2,2,1
1769,78738,2,2,1
1770,78742,2,2,1
1771,78745,2,2,1
1772,78746,2,2,1
1773,78749,2,2,1
1774,78750,2,2,1
1775,78751,2,2,1
1776,78753,2,2,1
1777,78755,2,2,1
1778,78757,2,2,1
1779,78761,2,2,1
1780,78763,2,2,1
1781,78765,2,2,1
1782,78766,2,2,1
1783,78767,2,2,1
1784,78768,2,2,1
1785,78770,2,2,1
1786,78776,2,2,1
1787,78777,2,2,1
1788,78782,2,2,1
1789,78783,2,2,1
1790,78784,2,2,1
1791,78785,2,2,1
1792,78790,2,2,1
1793,78791,2,3,0
1794,78792,2,2,1
1795,78799,2,2,1
1796,78800,2,2,1
1797,78803,2,2,1
1798,78805,2,2,1
1799,78807,2,2,1
1800,78808,2,2,1
1801,78809,2,2,1
1802,78811,2,2,1
1803,78812,2,2,1
1804,78813,2,2,1
1805,78815,2,2,1
1806,78817,2,2,1
1807,78820,2,2,1
1808,78821,2,2,1
1809,78822,2,2,1
1810,78827,2,2,1
1811,78829,2,2,1
1812,78830,2,2,1
1813,78837,2,2,1
1814,78839,2,2,1
1815,78842,2,1,0
1816,78843,2,2,1
1817,78844,2,2,1
1818,78845,2,1,0
1819,78849,2,2,1
1820,78850,2,2,1
1821,78851,2,0,0
1822,78852,2,2,1
1823,78853,2,2,1
1824,78855,2,2,1
1825,78860,2,2,1
1826,78864,2,2,1
1827,78865,2,0,0
1828,78867,2,2,1
1829,78868,2,2,1
1830,78869,2,2,1
1831,78870,2,2,1
1832,78872,2,2,1
1833,78873,2,2,1
1834,78876,2,2,1
1835,78877,2,2,1
1836,78878,2,2,1
1837,78880,2,2,1
1838,78883,2,4,0
1839,78884,2,2,1
1840,78887,2,2,1
1841,78889,2,2,1
1842,78895,2,2,1
1843,78896,2,2,1
1844,78897,2,2,1
1845,78898,2,2,1
1846,78899,2,2,1
1847,78901,2,2,1
1848,78902,2,2,1
1849,78903,2,2,1
1850,78904,2,2,1
1851,78905,2,2,1
1852,78906,2,2,1
1853,78907,2,0,0
1854,78909,2,2,1
1855,78911,2,2,1
1856,78912,2,2,1
1857,78913,2,2,1
1858,78916,2,2,1
1859,78918,2,2,1
1860,78924,2,2,1
1861,78925,2,3,0
1862,78927,2,2,1
1863,78929,2,2,1
1864,78934,2,2,1
1865,78935,2,2,1
1866,78938,2,2,1
1867,78941,2,2,1
1868,78943,2,2,1
1869,78944,2,2,1
1870,78948,2,2,1
1871,78949,2,2,1
1872,78953,2,2,1
1873,78957,2,2,1
1874,78959,2,2,1
1875,78960,2,2,1
1876,78961,2,2,1
1877,78963,2,2,1
1878,78964,2,2,1
1879,78965,2,2,1
1880,78966,2,2,1
1881,78967,2,2,1
1882,78968,2,2,1
1883,78969,2,1,0
1884,78974,2,2,1
1885,78975,2,2,1
1886,78978,2,2,1
1887,78981,2,2,1
1888,78984,2,3,0
1889,78985,2,3,0
1890,78986,2,2,1
1891,78988,2,2,1
1892,78993,2,2,1
1893,78994,2,2,1
1894,78996,2,2,1
1895,78997,2,2,1
1896,79001,2,2,1
1897,79002,2,2,1
1898,79004,2,2,1
1899,79009,2,2,1
1900,79010,2,2,1
1901,79011,2,2,1
1902,79014,2,2,1
1903,79015,2,2,1
1904,79016,2,2,1
1905,79018,2,2,1
1906,79020,2,2,1
1907,79021,2,2,1
1908,79024,2,2,1
1909,79025,2,2,1
1910,79026,2,2,1
1911,79027,2,2,1
1912,79033,2,2,1
1913,79034,2,2,1
1914,79035,2,2,1
1915,79036,2,2,1
1916,79037,2,2,1
1917,79041,2,2,1
1918,79045,2,2,1
1919,79047,2,2,1
1920,79049,2,2,1
1921,79052,2,2,1
1922,79054,2,2,1
1923,79056,2,2,1
1924,79057,2,2,1
1925,79058,2,2,1
1926,79066,2,2,1
1927,79067,2,2,1
1928,79068,2,2,1
1929,79069,2,1,0
1930,79072,2,1,0
1931,79074,2,2,1
1932,79077,2,2,1
1933,79080,2,2,1
1934,79082,2,2,1
1935,79085,2,2,1
1936,79086,2,2,1
1937,79091,2,2,1
1938,79092,2,2,1
1939,79094,2,2,1
1940,79097,2,2,1
1941,79099,2,2,1
1942,79101,2,2,1
1943,79102,2,2,1
1944,79105,2,2,1
1945,79107,2,2,1
1946,79109,2,2,1
1947,79110,2,2,1
1948,79111,2,2,1
1949,79112,2,2,1
1950,79114,2,2,1
1951,79115,2,2,1
1952,79117,2,2,1
1953,79118,2,2,1
1954,79120,2,2,1
1955,79121,2,2,1
1956,79123,2,2,1
1957,79126,2,2,1
1958,79127,2,2,1
1959,79130,2,2,1
1960,79133,2,2,1
1961,79136,2,2,1
1962,79138,2,2,1
1963,79140,2,2,1
1964,79141,2,2,1
1965,79145,2,3,0
1966,79147,2,1,0
1967,79151,2,2,1
1968,79154,2,2,1
1969,79155,2,2,1
1970,79156,2,2,1
1971,79157,2,0,0
1972,79158,2,2,1
1973,79160,2,2,1
1974,79161,2,2,1
1975,79162,2,2,1
1976,79163,2,2,1
1977,79164,2,2,1
1978,79165,2,2,1
1979,79166,2,2,1
1980,79168,2,2,1
1981,79169,2,2,1
1982,79171,2,1,0
1983,79172,2,2,1
1984,79175,2,2,1
1985,79184,2,2,1
1986,79186,2,2,1
1987,79188,2,2,1
1988,79189,2,2,1
1989,79190,2,2,1
1990,79196,2,2,1
1991,79198,2,2,1
1992,79200,2,2,1
1993,79201,2,2,1
1994,79202,2,2,1
1995,79204,2,2,1
1996,79205,2,3,0
1997,79206,2,2,1
1998,79208,2,2,1
1999,79213,2,2,1
2000,79214,2,2,1
2001,79221,2,2,1
2002,79222,2,2,1
2003,79223,2,2,1
2004,79231,2,2,1
2005,79234,2,2,1
2006,79235,2,2,1
2007,79239,2,3,0
2008,79240,2,2,1
2009,79241,2,2,1
2010,79245,2,2,1
2011,79255,2,2,1
2012,79256,2,1,0
2013,79257,2,2,1
2014,79258,2,4,0
2015,79259,2,3,0
2016,79260,2,2,1
2017,79265,2,2,1
2018,79270,2,2,1
2019,79271,2,2,1
2020,79273,2,1,0
2021,79274,2,2,1
2022,79275,2,2,1
2023,79276,2,2,1
2024,79277,2,2,1
2025,79278,2,2,1
2026,79284,2,2,1
2027,79287,2,2,1
2028,79290,2,2,1
2029,79291,2,2,1
2030,79293,2,2,1
2031,79295,2,2,1
2032,79296,2,2,1
2033,79297,2,2,1
2034,79301,2,2,1
2035,79304,2,2,1
2036,79305,2,2,1
2037,79306,2,2,1
2038,79308,2,1,0
2039,79312,2,2,1
2040,79313,2,2,1
2041,79317,2,2,1
2042,79318,2,2,1
2043,79319,2,2,1
2044,79326,2,2,1
2045,79327,2,2,1
2046,79329,2,2,1
2047,79337,2,2,1
2048,79338,2,2,1
2049,79339,2,2,1
2050,79346,2,2,1
2051,79348,2,2,1
2052,79349,2,2,1
2053,79350,2,2,1
2054,79351,2,2,1
2055,79359,2,2,1
2056,79360,2,2,1
2057,79361,2,2,1
2058,79363,2,2,1
2059,79365,2,2,1
2060,79366,2,2,1
2061,79367,2,2,1
2062,79369,2,2,1
2063,79380,2,2,1
2064,79381,2,2,1
2065,79385,2,2,1
2066,79386,2,2,1
2067,79389,2,2,1
2068,79390,2,2,1
2069,79391,2,2,1
2070,79392,2,2,1
2071,79393,2,2,1
2072,79394,2,3,0
2073,79395,2,2,1
2074,79397,2,2,1
2075,79398,2,2,1
2076,79400,2,3,0
2077,79401,2,2,1
2078,79403,2,2,1
2079,79404,2,2,1
2080,79405,2,2,1
2081,79406,2,2,1
2082,79408,2,2,1
2083,79409,2,1,0
2084,79410,2,2,1
2085,79416,2,2,1
2086,79418,2,1,0
2087,79423,2,2,1
2088,79424,2,2,1
2089,79425,2,2,1
2090,79426,2,3,0
2091,79427,2,2,1
2092,79430,2,2,1
2093,79432,2,2,1
2094,79434,2,2,1
2095,79435,2,2,1
2096,79436,2,2,1
2097,79437,2,2,1
2098,79439,2,2,1
2099,79441,2,2,1
2100,79442,2,2,1
2101,79443,2,2,1
2102,79447,2,2,1
2103,79450,2,2,1
2104,79455,2,2,1
2105,79459,2,2,1
2106,79461,2,2,1
2107,79462,2,2,1
2108,79463,2,2,1
2109,79464,2,2,1
2110,79468,2,2,1
2111,79469,2,2,1
2112,79470,2,2,1
2113,79476,2,2,1
2114,79477,2,2,1
2115,79479,2,2,1
2116,79484,2,2,1
2117,79485,2,2,1
2118,79487,2,2,1
2119,79489,2,2,1
2120,79490,2,2,1
2121,79491,2,0,0
2122,79492,2,2,1
2123,79494,2,2,1
2124,79495,2,2,1
2125,79496,2,2,1
2126,79500,2,2,1
2127,79502,2,2,1
2128,79503,2,2,1
2129,79504,2,2,1
2130,79506,2,2,1
2131,79508,2,2,1
2132,79511,2,1,0
2133,79512,2,2,1
2134,79513,2,2,1
2135,79515,2,2,1
2136,79516,2,2,1
2137,79517,2,2,1
2138,79519,2,2,1
2139,79521,2,2,1
2140,79522,2,2,1
2141,79527,2,2,1
2142,79531,2,1,0
2143,79534,2,2,1
2144,79537,2,2,1
2145,79538,2,3,0
2146,79539,2,2,1
2147,79540,2,2,1
2148,79542,2,2,1
2149,79545,2,2,1
2150,79546,2,2,1
2151,79548,2,2,1
2152,79549,2,2,1
2153,79551,2,2,1
2154,79555,2,2,1
2155,79557,2,2,1
2156,79558,2,2,1
2157,79560,2,2,1
2158,79561,2,2,1
2159,79564,2,2,1
2160,79565,2,2,1
2161,79566,2,2,1
2162,79567,2,2,1
2163,79568,2,2,1
2164,79569,2,2,1
2165,79570,2,2,1
2166,79571,2,2,1
2167,79572,2,2,1
2168,79574,2,2,1
2169,79579,2,2,1
2170,79580,2,0,0
2171,79581,2,2,1
2172,79583,2,2,1
2173,79587,2,2,1
2174,79588,2,2,1
2175,79589,2,0,0
2176,79590,2,2,1
2177,79591,2,2,1
2178,79594,2,2,1
2179,79598,2,2,1
2180,79603,2,2,1
2181,79604,2,2,1
2182,79607,2,2,1
2183,79609,2,2,1
2184,79610,2,2,1
2185,79611,2,2,1
2186,79614,2,2,1
2187,79616,2,1,0
2188,79617,2,2,1
2189,79618,2,2,1
2190,79625,2,2,1
2191,79627,2,2,1
2192,79632,2,2,1
2193,79633,2,2,1
2194,79634,2,2,1
2195,79635,2,2,1
2196,79637,2,2,1
2197,79638,2,2,1
2198,79641,2,2,1
2199,79644,2,2,1
2200,79648,2,2,1
2201,79651,2,2,1
2202,79655,2,2,1
2203,79657,2,2,1
2204,79659,2,2,1
2205,79661,2,2,1
2206,79664,2,2,1
2207,79665,2,2,1
2208,79666,2,2,1
2209,79667,2,2,1
2210,79668,2,2,1
2211,79669,2,2,1
2212,79671,2,2,1
2213,79672,2,2,1
2214,79673,2,2,1
2215,79674,2,2,1
2216,79676,2,2,1
2217,79677,2,2,1
2218,79679,2,2,1
2219,79681,2,2,1
2220,79682,2,2,1
2221,79684,2,2,1
2222,79685,2,2,1
2223,79687,2,2,1
2224,79688,2,2,1
2225,79689,2,0,0
2226,79699,2,2,1
2227,79701,2,2,1
2228,79702,2,2,1
2229,79704,2,3,0
2230,79705,2,2,1
2231,79706,2,2,1
2232,79712,2,2,1
2233,79713,2,2,1
2234,79715,2,2,1
2235,79719,2,2,1
2236,79723,2,2,1
2237,79727,2,2,1
2238,79728,2,2,1
2239,79732,2,2,1
2240,79734,2,2,1
2241,79735,2,2,1
2242,79736,2,2,1
2243,79737,2,0,0
2244,79738,2,2,1
2245,79739,2,2,1
2246,79745,2,2,1
2247,79747,2,2,1
2248,79748,2,2,1
2249,79751,2,2,1
2250,79755,2,2,1
2251,79758,2,2,1
2252,79761,2,2,1
2253,79767,2,2,1
2254,79769,2,2,1
2255,79771,2,2,1
2256,79779,2,2,1
2257,79780,2,2,1
2258,79781,2,2,1
2259,79785,2,2,1
2260,79786,2,2,1
2261,79787,2,2,1
2262,79788,2,2,1
2263,79790,2,2,1
2264,79791,2,2,1
2265,79792,2,2,1
2266,79794,2,2,1
2267,79795,2,2,1
2268,79797,2,2,1
2269,79798,2,2,1
2270,79800,2,2,1
2271,79804,2,2,1
2272,79806,2,2,1
2273,79807,2,2,1
2274,79808,2,2,1
2275,79811,2,2,1
2276,79814,2,2,1
2277,79815,2,2,1
2278,79819,2,2,1
2279,79821,2,1,0
2280,79822,2,1,0
2281,79823,2,2,1
2282,79824,2,2,1
2283,79825,2,2,1
2284,79827,2,2,1
2285,79833,2,2,1
2286,79834,2,3,0
2287,79836,2,2,1
2288,79837,2,2,1
2289,79838,2,2,1
2290,79841,2,2,1
2291,79843,2,2,1
2292,79844,2,2,1
2293,79846,2,2,1
2294,79849,2,2,1
2295,79850,2,2,1
2296,79851,2,2,1
2297,79852,2,2,1
2298,79855,2,2,1
2299,79859,2,1,0
2300,79867,2,2,1
2301,79869,2,3,0
2302,79870,2,2,1
2303,79874,2,3,0
2304,79877,2,2,1
2305,79878,2,2,1
2306,79881,2,2,1
2307,79882,2,1,0
2308,79883,2,2,1
2309,79889,2,2,1
2310,79891,2,2,1
2311,79893,2,2,1
2312,79894,2,2,1
2313,79895,2,2,1
2314,79902,2,2,1
2315,79904,2,1,0
2316,79906,2,2,1
2317,79907,2,2,1
2318,79908,2,2,1
2319,79911,2,2,1
2320,79912,2,2,1
2321,79913,2,2,1
2322,79914,2,2,1
2323,79915,2,2,1
2324,79916,2,2,1
2325,79919,2,2,1
2326,79923,2,0,0
2327,79927,2,2,1
2328,79930,2,2,1
2329,79936,2,2,1
2330,79938,2,2,1
2331,79941,2,2,1
2332,79942,2,2,1
2333,79944,2,2,1
2334,79945,2,2,1
2335,79949,2,2,1
2336,79950,2,2,1
2337,79951,2,2,1
2338,79953,2,2,1
2339,79954,2,2,1
2340,79955,2,2,1
2341,79958,2,2,1
2342,79959,2,2,1
2343,79960,2,1,0
2344,79965,2,2,1
2345,79967,2,1,0
2346,79968,2,2,1
2347,79969,2,2,1
2348,79970,2,1,0
2349,79971,2,2,1
2350,79973,2,3,0
2351,79975,2,2,1
2352,79976,2,2,1
2353,79978,2,2,1
2354,79980,2,2,1
2355,79982,2,2,1
2356,79984,2,2,1
2357,79988,2,3,0
2358,79989,2,2,1
2359,79991,2,2,1
2360,79992,2,2,1
2361,79997,2,2,1
2362,79999,2,2,1
2363,80002,2,2,1
2364,80007,2,2,1
2365,80008,2,2,1
2366,80021,2,2,1
2367,80024,2,2,1
2368,80026,2,2,1
2369,80030,2,3,0
2370,80032,2,2,1
2371,80035,2,2,1
2372,80038,2,2,1
2373,80040,2,2,1
2374,80043,2,2,1
2375,80046,2,2,1
2376,80048,2,1,0
2377,80058,2,2,1
2378,80062,2,2,1
2379,80067,2,2,1
2380,80068,2,2,1
2381,80070,2,2,1
2382,80072,2,2,1
2383,80073,2,2,1
2384,80074,2,2,1
2385,80076,2,2,1
2386,80077,2,2,1
2387,80079,2,2,1
2388,80080,2,2,1
2389,80081,2,2,1
2390,80082,2,2,1
2391,80084,2,2,1
2392,80088,2,2,1
2393,80090,2,2,1
2394,80093,2,2,1
2395,80095,2,2,1
2396,80096,2,2,1
2397,80097,2,2,1
2398,80098,2,2,1
2399,80099,2,2,1
2400,80102,2,2,1
2401,80103,2,2,1
2402,80110,2,2,1
2403,80111,2,2,1
2404,80112,2,2,1
2405,80118,2,2,1
2406,80120,2,2,1
2407,80125,2,2,1
2408,80128,2,2,1
2409,80131,2,1,0
2410,80132,2,2,1
2411,80134,2,2,1
2412,80135,2,2,1
2413,80136,2,2,1
2414,80138,2,2,1
2415,80139,2,2,1
2416,80142,2,2,1
2417,80144,2,2,1
2418,80146,2,2,1
2419,80147,2,2,1
2420,80148,2,2,1
2421,80151,2,3,0
2422,80152,2,2,1
2423,80154,2,2,1
2424,80156,2,2,1
2425,80158,2,2,1
2426,80165,2,2,1
2427,80166,2,2,1
2428,80167,2,2,1
2429,80170,2,2,1
2430,80172,2,2,1
2431,80174,2,1,0
2432,80176,2,1,0
2433,80180,2,2,1
2434,80181,2,2,1
2435,80183,2,2,1
2436,80184,2,2,1
2437,80186,2,2,1
2438,80187,2,2,1
2439,80189,2,2,1
2440,80193,2,2,1
2441,80194,2,2,1
2442,80196,2,2,1
2443,80198,2,2,1
2444,80199,2,2,1
2445,80200,2,2,1
2446,80202,2,2,1
2447,80207,2,1,0
2448,80211,2,2,1
2449,80212,2,2,1
2450,80214,2,2,1
2451,80217,2,2,1
2452,80219,2,2,1
2453,80220,2,2,1
2454,80224,2,0,0
2455,80228,2,2,1
2456,80232,2,2,1
2457,80239,2,2,1
2458,80242,2,2,1
2459,80244,2,2,1
2460,80245,2,2,1
2461,80250,2,2,1
2462,80253,2,2,1
2463,80258,2,2,1
2464,80259,2,1,0
2465,80260,2,1,0
2466,80263,2,2,1
2467,80265,2,2,1
2468,80269,2,2,1
2469,80270,2,2,1
2470,80272,2,2,1
2471,80275,2,0,0
2472,80276,2,2,1
2473,80277,2,2,1
2474,80278,2,2,1
2475,80279,2,2,1
2476,80281,2,2,1
2477,80283,2,2,1
2478,80284,2,2,1
2479,80285,2,2,1
2480,80286,2,2,1
2481,80290,2,2,1
2482,80293,2,2,1
2483,80294,2,2,1
2484,80295,2,2,1
2485,80297,2,2,1
2486,80298,2,2,1
2487,80299,2,2,1
2488,80302,2,2,1
2489,80307,2,2,1
2490,80309,2,2,1
2491,80311,2,2,1
2492,80312,2,3,0
2493,80316,2,2,1
2494,80321,2,2,1
2495,80323,2,2,1
2496,80324,2,2,1
2497,80326,2,2,1
2498,80330,2,2,1
2499,80335,2,2,1
2500,80336,2,2,1
2501,80337,2,2,1
2502,80342,2,3,0
2503,80343,2,2,1
2504,80346,2,2,1
2505,80348,2,2,1
2506,80349,2,2,1
2507,80350,2,2,1
2508,80356,2,2,1
2509,80357,2,2,1
2510,80358,2,2,1
2511,80361,2,2,1
2512,80365,2,2,1
2513,80367,2,3,0
2514,80368,2,2,1
2515,80371,2,2,1
2516,80373,2,2,1
2517,80375,2,2,1
2518,80379,2,2,1
2519,80382,2,2,1
2520,80383,2,2,1
2521,80384,2,2,1
2522,80385,2,2,1
2523,80387,2,2,1
2524,80389,2,2,1
2525,80391,2,3,0
2526,80395,2,2,1
2527,80396,2,2,1
2528,80397,2,2,1
2529,80407,2,2,1
2530,80425,2,2,1
2531,80428,2,2,1
2532,80429,2,2,1
2533,80433,2,2,1
2534,80437,2,2,1
2535,80438,2,2,1
2536,80440,2,2,1
2537,80441,2,2,1
2538,80443,2,3,0
2539,80446,2,2,1
2540,80447,2,2,1
2541,80450,2,2,1
2542,80452,2,2,1
2543,80455,2,2,1
2544,80457,2,2,1
2545,80459,2,2,1
2546,80462,2,2,1
2547,80466,2,2,1
2548,80467,2,2,1
2549,80468,2,3,0
2550,80470,2,2,1
2551,80472,2,2,1
2552,80473,2,2,1
2553,80474,2,2,1
2554,80475,2,2,1
2555,80478,2,2,1
2556,106231,2,2,1
2557,106234,2,2,1
2558,106237,2,2,1
2559,106239,2,2,1
2560,106240,2,2,1
2561,106241,2,2,1
2562,106242,2,2,1
2563,106243,2,2,1
2564,106245,2,2,1
2565,106246,2,2,1
2566,106247,2,2,1
2567,106248,2,2,1
2568,106250,2,3,0
2569,106253,2,2,1
2570,106255,2,2,1
2571,106257,2,2,1
2572,106258,2,0,0
2573,106261,2,2,1
2574,106264,2,2,1
2575,106265,2,2,1
2576,106268,2,2,1
2577,106269,2,2,1
2578,106270,2,2,1
2579,106271,2,2,1
2580,106274,2,2,1
2581,106276,2,2,1
2582,106279,2,2,1
2583,106282,2,2,1
2584,106284,2,2,1
2585,106285,2,2,1
2586,106288,2,2,1
2587,106290,2,2,1
2588,106291,2,2,1
2589,106298,2,2,1
2590,106301,2,2,1
2591,106302,2,3,0
2592,106303,2,2,1
2593,106304,2,2,1
2594,106308,2,2,1
2595,106309,2,2,1
2596,106311,2,2,1
2597,106314,2,2,1
2598,106317,2,2,1
2599,106318,2,2,1
2600,106322,2,2,1
2601,106324,2,2,1
2602,106326,2,2,1
2603,106330,2,2,1
2604,106331,2,2,1
2605,106335,2,2,1
2606,106336,2,2,1
2607,106340,2,2,1
2608,106342,2,2,1
2609,106343,2,2,1
2610,106344,2,2,1
2611,106345,2,2,1
2612,106348,2,2,1
2613,106350,2,2,1
2614,106351,2,2,1
2615,106354,2,2,1
2616,106357,2,2,1
2617,106359,2,2,1
2618,106360,2,2,1
2619,106361,2,2,1
2620,106366,2,2,1
2621,106368,2,2,1
2622,106371,2,1,0
2623,106372,2,2,1
2624,106373,2,2,1
2625,106374,2,2,1
2626,106376,2,2,1
2627,106377,2,2,1
2628,106378,2,2,1
2629,106381,2,2,1
2630,106383,2,3,0
2631,106384,2,2,1
2632,106388,2,2,1
2633,106389,2,2,1
2634,106392,2,2,1
2635,106393,2,2,1
2636,106395,2,2,1
2637,106396,2,2,1
2638,106399,2,3,0
2639,106402,2,2,1
2640,106405,2,2,1
2641,106406,2,2,1
2642,106414,2,2,1
2643,106419,2,2,1
2644,106420,2,2,1
2645,106422,2,2,1
2646,106424,2,2,1
2647,106425,2,2,1
2648,106426,2,2,1
2649,106427,2,1,0
2650,106428,2,2,1
2651,106436,2,2,1
2652,106438,2,2,1
2653,106439,2,3,0
2654,106440,2,2,1
2655,106445,2,2,1
2656,106446,2,3,0
2657,106450,2,2,1
2658,106451,2,2,1
2659,106453,2,2,1
2660,106460,2,2,1
2661,106468,2,2,1
2662,106470,2,2,1
2663,106471,2,2,1
2664,106473,2,2,1
2665,106475,2,2,1
2666,106481,2,2,1
2667,106482,2,2,1
2668,106483,2,2,1
2669,106484,2,2,1
2670,106489,2,2,1
2671,106491,2,2,1
2672,106492,2,2,1
2673,106494,2,2,1
2674,106495,2,2,1
2675,106497,2,2,1
2676,106498,2,2,1
2677,106500,2,2,1
2678,106502,2,2,1
2679,106506,2,2,1
2680,106509,2,2,1
2681,106511,2,3,0
2682,106512,2,2,1
2683,106516,2,2,1
2684,106518,2,2,1
2685,106519,2,2,1
2686,106520,2,2,1
2687,106521,2,2,1
2688,106522,2,1,0
2689,106523,2,2,1
2690,106525,2,2,1
2691,106526,2,2,1
2692,106528,2,3,0
2693,106533,2,2,1
2694,106536,2,2,1
2695,106537,2,2,1
2696,106538,2,2,1
2697,106540,2,2,1
2698,106546,2,2,1
2699,106548,2,2,1
2700,106551,2,2,1
2701,106554,2,2,1
2702,106559,2,2,1
2703,106562,2,2,1
2704,106566,2,2,1
2705,106571,2,2,1
2706,106572,2,3,0
2707,106574,2,2,1
2708,106575,2,2,1
2709,106576,2,2,1
2710,106581,2,2,1
2711,106582,2,2,1
2712,106583,2,2,1
2713,106588,2,2,1
2714,106589,2,2,1
2715,106592,2,2,1
2716,106593,2,2,1
2717,106594,2,2,1
2718,106598,2,2,1
2719,106599,2,2,1
2720,106601,2,2,1
2721,106602,2,2,1
2722,106604,2,2,1
2723,106606,2,2,1
2724,106607,2,2,1
2725,106608,2,2,1
2726,106609,2,2,1
2727,106611,2,2,1
2728,106612,2,2,1
2729,106615,2,3,0
2730,106620,2,2,1
2731,106621,2,2,1
2732,106627,2,2,1
2733,106628,2,2,1
2734,106634,2,2,1
2735,106638,2,2,1
2736,106642,2,2,1
2737,106643,2,3,0
2738,106644,2,2,1
2739,106650,2,2,1
2740,106654,2,2,1
2741,106657,2,2,1
2742,106658,2,2,1
2743,106659,2,2,1
2744,106660,2,2,1
2745,106663,2,2,1
2746,106666,2,2,1
2747,106667,2,2,1
2748,106668,2,2,1
2749,106669,2,2,1
2750,106670,2,2,1
2751,106672,2,2,1
2752,106674,2,2,1
2753,106678,2,2,1
2754,106679,2,2,1
2755,106680,2,2,1
2756,106682,2,2,1
2757,106685,2,3,0
2758,106686,2,2,1
2759,106687,2,2,1
2760,106688,2,3,0
2761,106690,2,3,0
2762,106697,2,2,1
2763,106698,2,2,1
2764,106699,2,2,1
2765,106700,2,3,0
2766,106701,2,2,1
2767,106702,2,2,1
2768,106703,2,2,1
2769,106707,2,2,1
2770,106713,2,2,1
2771,106718,2,2,1
2772,106724,2,2,1
2773,106726,2,2,1
2774,106728,2,2,1
2775,106733,2,2,1
2776,106740,2,2,1
2777,106744,2,2,1
2778,106745,2,2,1
2779,106750,2,2,1
2780,106754,2,2,1
2781,106756,2,2,1
2782,106757,2,2,1
2783,106759,2,2,1
2784,106760,2,2,1
2785,106762,2,2,1
2786,106763,2,2,1
2787,106766,2,2,1
2788,106768,2,2,1
2789,106773,2,2,1
2790,106775,2,2,1
2791,106776,2,2,1
2792,106777,2,2,1
2793,106778,2,2,1
2794,106779,2,2,1
2795,106782,2,2,1
2796,106783,2,2,1
2797,106785,2,2,1
2798,106787,2,2,1
2799,106789,2,2,1
2800,106790,2,3,0
2801,106791,2,2,1
2802,106796,2,2,1
2803,106797,2,2,1
2804,106798,2,2,1
2805,106801,2,2,1
2806,106802,2,2,1
2807,106804,2,2,1
2808,106805,2,2,1
2809,106806,2,2,1
2810,106808,2,2,1
2811,106809,2,2,1
2812,106810,2,2,1
2813,106812,2,2,1
2814,106813,2,2,1
2815,106814,2,2,1
2816,106818,2,2,1
2817,106824,2,2,1
2818,106825,2,2,1
2819,106827,2,0,0
2820,106828,2,3,0
2821,106832,2,1,0
2822,106833,2,2,1
2823,106835,2,2,1
2824,106836,2,2,1
2825,106837,2,2,1
2826,106838,2,2,1
2827,106840,2,2,1
2828,106843,2,2,1
2829,106845,2,2,1
2830,106851,2,2,1
2831,106852,2,2,1
2832,106853,2,2,1
2833,106855,2,2,1
2834,106857,2,2,1
2835,106858,2,2,1
2836,106859,2,2,1
2837,106862,2,2,1
2838,106863,2,2,1
2839,106864,2,2,1
2840,106865,2,2,1
2841,106867,2,2,1
2842,106870,2,2,1
2843,106871,2,2,1
2844,106877,2,2,1
2845,106878,2,2,1
2846,106885,2,2,1
2847,106886,2,2,1
2848,106892,2,2,1
2849,106894,2,2,1
2850,106898,2,2,1
2851,106900,2,2,1
2852,106901,2,2,1
2853,106905,2,2,1
2854,106910,2,2,1
2855,106912,2,2,1
2856,106913,2,2,1
2857,106914,2,2,1
2858,106915,2,2,1
2859,106916,2,2,1
2860,106917,2,2,1
2861,106921,2,2,1
2862,106923,2,2,1
2863,106924,2,2,1
2864,106926,2,2,1
2865,106927,2,2,1
2866,106928,2,2,1
2867,106931,2,2,1
2868,106932,2,2,1
2869,106933,2,2,1
2870,106935,2,2,1
2871,106938,2,2,1
2872,106941,2,2,1
2873,106946,2,2,1
2874,106949,2,2,1
2875,106956,2,2,1
2876,106958,2,2,1
2877,106959,2,2,1
2878,106960,2,2,1
2879,106962,2,2,1
2880,106963,2,2,1
2881,106967,2,2,1
2882,106970,2,2,1
2883,106971,2,2,1
2884,106974,2,2,1
2885,106975,2,2,1
2886,106977,2,2,1
2887,106979,2,2,1
2888,106982,2,2,1
2889,106984,2,2,1
2890,106986,2,2,1
2891,106992,2,3,0
2892,106995,2,2,1
2893,106998,2,2,1
2894,107001,2,2,1
2895,107002,2,2,1
2896,107011,2,2,1
2897,107014,2,2,1
2898,107015,2,2,1
2899,107017,2,2,1
2900,107020,2,3,0
2901,107021,2,2,1
2902,107023,2,2,1
2903,107027,2,2,1
2904,107030,2,2,1
2905,107033,2,2,1
2906,107034,2,2,1
2907,107035,2,2,1
2908,107036,2,2,1
2909,107039,2,2,1
2910,107040,2,2,1
2911,107041,2,2,1
2912,107044,2,2,1
2913,107046,2,2,1
2914,107050,2,3,0
2915,107052,2,2,1
2916,107053,2,2,1
2917,107055,2,2,1
2918,107058,2,2,1
2919,107059,2,2,1
2920,107060,2,2,1
2921,107061,2,2,1
2922,107063,2,2,1
2923,107068,2,2,1
2924,107069,2,2,1
2925,107072,2,2,1
2926,107076,2,2,1
2927,107079,2,2,1
2928,107080,2,2,1
2929,107084,2,2,1
2930,107086,2,2,1
2931,107087,2,2,1
2932,107088,2,2,1
2933,107091,2,2,1
2934,107095,2,2,1
2935,107103,2,2,1
2936,107113,2,2,1
2937,107114,2,2,1
2938,107115,2,2,1
2939,107119,2,2,1
2940,107121,2,2,1
2941,107131,2,2,1
2942,107132,2,2,1
2943,107135,2,2,1
2944,107136,2,2,1
2945,107139,2,2,1
2946,107141,2,2,1
2947,107142,2,0,0
2948,107144,2,3,0
2949,107147,2,2,1
2950,107148,2,2,1
2951,107149,2,2,1
2952,107150,2,2,1
2953,107151,2,2,1
2954,107157,2,2,1
2955,107158,2,2,1
2956,107159,2,2,1
2957,107166,2,2,1
2958,107167,2,2,1
2959,107170,2,2,1
2960,107171,2,2,1
2961,107172,2,2,1
2962,107175,2,2,1
2963,107176,2,2,1
2964,107177,2,2,1
2965,107178,2,2,1
2966,107182,2,3,0
2967,107183,2,2,1
2968,107187,2,1,0
2969,107188,2,2,1
2970,107191,2,2,1
2971,107192,2,2,1
2972,107196,2,2,1
2973,107198,2,2,1
2974,107200,2,2,1
2975,107202,2,2,1
2976,107207,2,2,1
2977,107211,2,2,1
2978,107212,2,2,1
2979,107214,2,2,1
2980,107215,2,2,1
2981,107216,2,3,0
2982,107219,2,2,1
2983,107221,2,2,1
2984,107223,2,2,1
2985,107224,2,2,1
2986,107228,2,2,1
2987,107229,2,2,1
2988,107230,2,2,1
2989,107236,2,2,1
2990,107240,2,2,1
2991,107241,2,2,1
2992,107242,2,2,1
2993,107244,2,2,1
2994,107245,2,3,0
2995,107246,2,2,1
2996,107248,2,2,1
2997,107249,2,2,1
2998,107251,2,2,1
2999,107252,2,2,1
3000,107257,2,2,1
3001,107259,2,2,1
3002,107262,2,2,1
3003,107264,2,2,1
3004,107268,2,2,1
3005,107271,2,2,1
3006,107272,2,2,1
3007,107273,2,2,1
3008,107274,2,2,1
3009,107275,2,2,1
3010,107276,2,2,1
3011,107277,2,2,1
3012,107279,2,2,1
3013,107281,2,2,1
3014,107282,2,2,1
3015,107284,2,2,1
3016,107287,2,2,1
3017,107288,2,1,0
3018,107291,2,2,1
3019,107292,2,2,1
3020,107293,2,2,1
3021,107294,2,2,1
3022,107295,2,2,1
3023,107296,2,2,1
3024,107298,2,2,1
3025,107300,2,2,1
3026,107303,2,2,1
3027,107306,2,2,1
3028,107310,2,2,1
3029,107311,2,3,0
3030,107313,2,2,1
3031,107314,2,2,1
3032,107316,2,2,1
3033,107320,2,2,1
3034,107321,2,2,1
3035,107322,2,2,1
3036,107323,2,2,1
3037,107326,2,2,1
3038,107327,2,2,1
3039,107329,2,2,1
3040,107330,2,2,1
3041,107331,2,2,1
3042,107332,2,2,1
3043,107333,2,2,1
3044,107336,2,2,1
3045,107338,2,2,1
3046,107341,2,2,1
3047,107342,2,2,1
3048,107343,2,2,1
3049,107344,2,2,1
3050,107347,2,2,1
3051,107348,2,2,1
3052,107349,2,2,1
3053,107351,2,2,1
3054,107352,2,2,1
3055,107353,2,2,1
3056,107354,2,2,1
3057,107355,2,2,1
3058,107356,2,2,1
3059,107357,2,2,1
3060,107361,2,2,1
3061,107368,2,2,1
3062,107369,2,2,1
3063,107372,2,3,0
3064,107373,2,2,1
3065,107374,2,2,1
3066,107375,2,2,1
3067,107377,2,2,1
3068,107382,2,2,1
3069,107384,2,2,1
3070,107386,2,2,1
3071,107388,2,2,1
3072,107394,2,2,1
3073,107395,2,2,1
3074,107397,2,2,1
3075,107399,2,2,1
3076,107400,2,2,1
3077,107401,2,2,1
3078,107402,2,2,1
3079,107403,2,2,1
3080,107404,2,2,1
3081,107406,2,2,1
3082,107407,2,2,1
3083,107408,2,0,0
3084,107410,2,2,1
3085,107412,2,2,1
3086,107416,2,2,1
3087,107418,2,2,1
3088,107419,2,2,1
3089,107421,2,2,1
3090,107424,2,2,1
3091,107429,2,2,1
3092,107431,2,2,1
3093,107433,2,2,1
3094,107435,2,1,0
3095,107439,2,2,1
3096,107440,2,2,1
3097,107443,2,2,1
3098,107446,2,2,1
3099,107448,2,2,1
3100,107451,2,2,1
3101,107452,2,2,1
3102,107453,2,2,1
3103,107455,2,2,1
3104,107457,2,0,0
3105,107458,2,2,1
3106,107459,2,2,1
3107,107461,2,0,0
3108,107464,2,2,1
3109,107465,2,2,1
3110,107466,2,2,1
3111,107469,2,2,1
3112,107470,2,2,1
3113,107471,2,2,1
3114,107474,2,2,1
3115,107475,2,2,1
3116,107479,2,2,1
3117,107480,2,2,1
3118,107481,2,2,1
3119,107485,2,2,1
3120,107486,2,2,1
3121,107487,2,2,1
3122,107489,2,2,1
3123,107490,2,0,0
3124,107494,2,2,1
3125,107498,2,2,1
3126,107500,2,2,1
3127,107506,2,2,1
3128,107508,2,2,1
3129,107509,2,2,1
3130,107510,2,2,1
3131,107512,2,2,1
3132,107514,2,2,1
3133,107516,2,2,1
3134,107517,2,2,1
3135,107518,2,2,1
3136,107519,2,2,1
3137,107520,2,2,1
3138,107521,2,2,1
3139,107522,2,2,1
3140,107525,2,2,1
3141,107528,2,1,0
3142,107530,2,2,1
3143,107534,2,2,1
3144,107537,2,2,1
3145,107538,2,3,0
3146,107540,2,2,1
3147,107541,2,2,1
3148,107544,2,2,1
3149,107547,2,2,1
3150,107549,2,2,1
3151,107553,2,2,1
3152,107555,2,2,1
3153,107557,2,2,1
3154,107558,2,2,1
3155,107559,2,2,1
3156,107560,2,2,1
3157,107563,2,2,1
3158,107564,2,2,1
3159,107566,2,2,1
3160,107570,2,2,1
3161,107574,2,2,1
3162,107576,2,2,1
3163,107582,2,2,1
3164,107584,2,2,1
3165,107587,2,2,1
3166,107588,2,2,1
3167,107590,2,2,1
3168,107591,2,2,1
3169,107592,2,2,1
3170,107595,2,2,1
3171,107597,2,2,1
3172,107602,2,2,1
3173,107606,2,2,1
3174,107607,2,2,1
3175,107608,2,2,1
3176,107618,2,2,1
3177,107619,2,2,1
3178,107620,2,2,1
3179,107621,2,0,0
3180,107623,2,2,1
3181,107625,2,2,1
3182,107628,2,2,1
3183,107633,2,2,1
3184,107635,2,2,1
3185,107636,2,2,1
3186,107638,2,2,1
3187,107639,2,3,0
3188,107640,2,2,1
3189,107644,2,2,1
3190,107646,2,2,1
3191,107648,2,2,1
3192,107660,2,2,1
3193,107662,2,2,1
3194,107664,2,2,1
3195,107665,2,2,1
3196,107666,2,2,1
3197,107667,2,2,1
3198,107669,2,2,1
3199,107671,2,2,1
3200,107675,2,2,1
