,Hearbeat ID,Ground Truth,Predicted Category,Comparison Result
0,61,0,0,1
1,87,0,0,1
2,100,0,0,1
3,113,0,0,1
4,137,0,0,1
5,151,0,0,1
6,163,0,0,1
7,195,0,0,1
8,210,0,0,1
9,252,0,0,1
10,267,0,0,1
11,269,0,2,0
12,310,0,0,1
13,322,0,0,1
14,348,0,0,1
15,376,0,0,1
16,378,0,0,1
17,503,0,0,1
18,504,0,0,1
19,526,0,0,1
20,537,0,0,1
21,553,0,0,1
22,556,0,0,1
23,563,0,0,1
24,569,0,0,1
25,639,0,0,1
26,688,0,3,0
27,697,0,0,1
28,714,0,0,1
29,777,0,0,1
30,803,0,0,1
31,805,0,0,1
32,852,0,0,1
33,853,0,3,0
34,865,0,0,1
35,1007,0,0,1
36,1056,0,1,0
37,1073,0,0,1
38,1076,0,0,1
39,1077,0,3,0
40,1124,0,0,1
41,1143,0,0,1
42,1149,0,0,1
43,1155,0,0,1
44,1173,0,0,1
45,1211,0,0,1
46,1221,0,0,1
47,1271,0,0,1
48,1294,0,0,1
49,1313,0,0,1
50,1319,0,0,1
51,1330,0,0,1
52,1338,0,0,1
53,1448,0,0,1
54,1455,0,0,1
55,1486,0,0,1
56,1489,0,0,1
57,1493,0,0,1
58,1558,0,0,1
59,1560,0,0,1
60,1592,0,0,1
61,1604,0,0,1
62,1632,0,0,1
63,1650,0,0,1
64,1710,0,0,1
65,1723,0,0,1
66,1725,0,0,1
67,1752,0,3,0
68,1755,0,3,0
69,1771,0,0,1
70,1780,0,0,1
71,1864,0,0,1
72,1887,0,0,1
73,1895,0,0,1
74,1937,0,0,1
75,1946,0,0,1
76,2039,0,0,1
77,2058,0,0,1
78,2094,0,0,1
79,2117,0,0,1
80,2154,0,0,1
81,2205,0,0,1
82,2211,0,0,1
83,2226,0,0,1
84,2229,0,0,1
85,2235,0,0,1
86,2322,0,0,1
87,2356,0,0,1
88,2360,0,0,1
89,2367,0,0,1
90,2375,0,3,0
91,2399,0,0,1
92,2428,0,0,1
93,2455,0,0,1
94,2456,0,0,1
95,2471,0,0,1
96,2502,0,0,1
97,2503,0,0,1
98,2522,0,0,1
99,2567,0,0,1
100,2595,0,0,1
101,2618,0,0,1
102,2620,0,0,1
103,2626,0,2,0
104,2648,0,0,1
105,2661,0,0,1
106,2686,0,0,1
107,2713,0,0,1
108,2739,0,0,1
109,2740,0,0,1
110,2752,0,0,1
111,2768,0,0,1
112,2773,0,0,1
113,2821,0,0,1
114,2822,0,0,1
115,2912,0,0,1
116,2933,0,0,1
117,2936,0,0,1
118,2989,0,0,1
119,2997,0,0,1
120,3019,0,0,1
121,3029,0,0,1
122,3046,0,0,1
123,3055,0,0,1
124,3082,0,0,1
125,3098,0,0,1
126,3111,0,0,1
127,3113,0,0,1
128,3187,0,0,1
129,3193,0,0,1
130,3200,0,0,1
131,3206,0,0,1
132,3208,0,0,1
133,3224,0,0,1
134,3227,0,0,1
135,3239,0,0,1
136,3241,0,0,1
137,3256,0,0,1
138,3331,0,0,1
139,3342,0,0,1
140,3354,0,0,1
141,3356,0,0,1
142,3404,0,0,1
143,3416,0,0,1
144,3444,0,0,1
145,3450,0,0,1
146,3472,0,0,1
147,3475,0,0,1
148,3483,0,0,1
149,3541,0,0,1
150,3592,0,0,1
151,3600,0,0,1
152,3601,0,3,0
153,3611,0,0,1
154,3626,0,0,1
155,3635,0,0,1
156,3640,0,0,1
157,3681,0,0,1
158,3690,0,0,1
159,3726,0,2,0
160,3737,0,0,1
161,3751,0,0,1
162,3815,0,0,1
163,3826,0,0,1
164,3829,0,0,1
165,3843,0,0,1
166,3857,0,0,1
167,3907,0,0,1
168,3915,0,0,1
169,3916,0,0,1
170,3928,0,0,1
171,4079,0,0,1
172,4087,0,0,1
173,4166,0,0,1
174,4177,0,0,1
175,4182,0,0,1
176,4211,0,0,1
177,4213,0,0,1
178,4228,0,0,1
179,4237,0,3,0
180,4384,0,0,1
181,4414,0,0,1
182,4447,0,0,1
183,4468,0,0,1
184,4474,0,0,1
185,4497,0,0,1
186,4504,0,0,1
187,4548,0,0,1
188,4580,0,0,1
189,4602,0,0,1
190,4670,0,0,1
191,4680,0,0,1
192,4683,0,0,1
193,4706,0,0,1
194,4718,0,0,1
195,4734,0,3,0
196,4753,0,0,1
197,4763,0,0,1
198,4787,0,0,1
199,4801,0,0,1
200,4826,0,2,0
201,4875,0,0,1
202,4968,0,0,1
203,5082,0,0,1
204,5159,0,0,1
205,5233,0,0,1
206,5275,0,0,1
207,5311,0,0,1
208,5316,0,0,1
209,5317,0,0,1
210,5352,0,0,1
211,5403,0,0,1
212,5408,0,0,1
213,5411,0,0,1
214,5466,0,0,1
215,5489,0,2,0
216,5507,0,0,1
217,5508,0,0,1
218,5516,0,0,1
219,5527,0,0,1
220,5536,0,0,1
221,5537,0,0,1
222,5558,0,0,1
223,5646,0,0,1
224,5716,0,0,1
225,5739,0,0,1
226,5813,0,0,1
227,5834,0,0,1
228,5873,0,0,1
229,5875,0,0,1
230,5941,0,0,1
231,5957,0,2,0
232,5996,0,0,1
233,6014,0,0,1
234,6065,0,0,1
235,6074,0,0,1
236,6175,0,3,0
237,6224,0,0,1
238,6266,0,3,0
239,6283,0,0,1
240,6295,0,0,1
241,6314,0,0,1
242,6394,0,2,0
243,6402,0,0,1
244,6454,0,0,1
245,6493,0,0,1
246,6500,0,0,1
247,6527,0,0,1
248,6573,0,0,1
249,6588,0,0,1
250,6656,0,0,1
251,6664,0,0,1
252,6751,0,0,1
253,6777,0,0,1
254,6796,0,1,0
255,6797,0,0,1
256,6844,0,0,1
257,6856,0,0,1
258,6903,0,0,1
259,6943,0,0,1
260,6959,0,0,1
261,6986,0,0,1
262,7000,0,3,0
263,7068,0,0,1
264,7073,0,0,1
265,7148,0,0,1
266,7247,0,2,0
267,7272,0,0,1
268,7283,0,0,1
269,7303,0,0,1
270,7305,0,0,1
271,7318,0,0,1
272,7348,0,0,1
273,7371,0,2,0
274,7398,0,0,1
275,7404,0,0,1
276,7419,0,0,1
277,7420,0,0,1
278,7445,0,0,1
279,7491,0,0,1
280,7513,0,0,1
281,7536,0,0,1
282,7567,0,0,1
283,7590,0,0,1
284,7606,0,0,1
285,7613,0,0,1
286,7681,0,0,1
287,7712,0,0,1
288,7753,0,0,1
289,7772,0,0,1
290,7894,0,0,1
291,7896,0,0,1
292,7910,0,0,1
293,7916,0,0,1
294,7938,0,0,1
295,7994,0,0,1
296,8040,0,0,1
297,8053,0,0,1
298,8074,0,0,1
299,8123,0,0,1
300,8127,0,0,1
301,8159,0,0,1
302,8209,0,3,0
303,8224,0,0,1
304,8271,0,0,1
305,8281,0,1,0
306,8293,0,0,1
307,8294,0,0,1
308,8333,0,0,1
309,8334,0,0,1
310,8343,0,0,1
311,8358,0,0,1
312,8408,0,0,1
313,8519,0,0,1
314,8587,0,0,1
315,8588,0,0,1
316,8641,0,0,1
317,8668,0,0,1
318,8733,0,0,1
319,8768,0,0,1
320,8901,0,0,1
321,8907,0,0,1
322,8935,0,0,1
323,8978,0,0,1
324,8979,0,0,1
325,8992,0,0,1
326,9036,0,0,1
327,9039,0,0,1
328,9093,0,0,1
329,9101,0,0,1
330,9111,0,0,1
331,9138,0,0,1
332,9149,0,0,1
333,9157,0,0,1
334,9237,0,0,1
335,9247,0,0,1
336,9252,0,0,1
337,9315,0,0,1
338,9321,0,0,1
339,9325,0,0,1
340,9357,0,0,1
341,9374,0,0,1
342,9413,0,0,1
343,9426,0,0,1
344,9428,0,0,1
345,9480,0,0,1
346,9503,0,0,1
347,9529,0,0,1
348,9534,0,3,0
349,9540,0,0,1
350,9545,0,0,1
351,9571,0,0,1
352,9602,0,0,1
353,9669,0,0,1
354,9689,0,0,1
355,9695,0,0,1
356,9707,0,0,1
357,9781,0,0,1
358,9793,0,0,1
359,9812,0,0,1
360,9827,0,0,1
361,9840,0,0,1
362,9871,0,0,1
363,9897,0,0,1
364,9909,0,0,1
365,9911,0,0,1
366,9916,0,0,1
367,9980,0,0,1
368,9999,0,0,1
369,10174,0,0,1
370,10214,0,0,1
371,10218,0,0,1
372,10219,0,0,1
373,10262,0,0,1
374,10285,0,0,1
375,10319,0,0,1
376,10366,0,0,1
377,10396,0,0,1
378,10413,0,0,1
379,10423,0,0,1
380,10435,0,0,1
381,10455,0,0,1
382,10487,0,0,1
383,10558,0,0,1
384,10561,0,0,1
385,10584,0,0,1
386,10611,0,0,1
387,10626,0,0,1
388,10653,0,0,1
389,10658,0,0,1
390,10668,0,0,1
391,10674,0,0,1
392,10701,0,0,1
393,10724,0,0,1
394,10736,0,0,1
395,10777,0,0,1
396,10785,0,0,1
397,10789,0,3,0
398,10807,0,0,1
399,10822,0,0,1
400,10826,0,0,1
401,10828,0,0,1
402,10842,0,0,1
403,10858,0,0,1
404,10869,0,0,1
405,10929,0,0,1
406,10970,0,0,1
407,10979,0,0,1
408,10992,0,0,1
409,11005,0,0,1
410,11011,0,0,1
411,11049,0,0,1
412,11094,0,0,1
413,11114,0,0,1
414,11118,0,3,0
415,11127,0,0,1
416,11139,0,0,1
417,11195,0,0,1
418,11204,0,0,1
419,11213,0,0,1
420,11236,0,0,1
421,11241,0,0,1
422,11270,0,0,1
423,11361,0,0,1
424,11373,0,3,0
425,11390,0,0,1
426,11439,0,0,1
427,11457,0,0,1
428,11477,0,0,1
429,11481,0,2,0
430,11508,0,0,1
431,11523,0,0,1
432,11623,0,0,1
433,11648,0,0,1
434,11703,0,0,1
435,11772,0,0,1
436,11783,0,0,1
437,11795,0,0,1
438,11804,0,3,0
439,11811,0,0,1
440,11836,0,0,1
441,11902,0,2,0
442,11923,0,0,1
443,11924,0,0,1
444,11959,0,0,1
445,11965,0,0,1
446,11978,0,0,1
447,11995,0,0,1
448,12016,0,0,1
449,12021,0,0,1
450,12026,0,0,1
451,12074,0,0,1
452,12146,0,0,1
453,12155,0,0,1
454,12158,0,0,1
455,12174,0,0,1
456,12205,0,0,1
457,12242,0,0,1
458,12292,0,0,1
459,12310,0,0,1
460,12311,0,0,1
461,12316,0,1,0
462,12326,0,0,1
463,12333,0,0,1
464,12340,0,0,1
465,12365,0,0,1
466,12400,0,0,1
467,12430,0,0,1
468,12431,0,0,1
469,12488,0,0,1
470,12519,0,0,1
471,12556,0,0,1
472,12604,0,0,1
473,12624,0,0,1
474,12648,0,0,1
475,12654,0,2,0
476,12669,0,0,1
477,12674,0,0,1
478,12686,0,0,1
479,12706,0,0,1
480,12731,0,0,1
481,12736,0,0,1
482,12773,0,0,1
483,12778,0,0,1
484,12786,0,0,1
485,12796,0,0,1
486,12810,0,0,1
487,12811,0,0,1
488,12830,0,0,1
489,12831,0,0,1
490,12842,0,0,1
491,12868,0,0,1
492,12874,0,0,1
493,12894,0,0,1
494,12903,0,0,1
495,12957,0,0,1
496,12970,0,0,1
497,12975,0,0,1
498,13001,0,0,1
499,13077,0,0,1
500,13096,0,0,1
501,13149,0,0,1
502,13176,0,3,0
503,13185,0,0,1
504,13228,0,0,1
505,13300,0,0,1
506,13312,0,0,1
507,13357,0,0,1
508,13395,0,0,1
509,13402,0,0,1
510,13423,0,0,1
511,13432,0,2,0
512,13436,0,0,1
513,13437,0,0,1
514,13445,0,0,1
515,13455,0,0,1
516,13476,0,0,1
517,13498,0,0,1
518,13519,0,0,1
519,13527,0,0,1
520,13543,0,0,1
521,13545,0,0,1
522,13632,0,0,1
523,13639,0,0,1
524,13705,0,0,1
525,13710,0,0,1
526,13740,0,0,1
527,13762,0,0,1
528,13776,0,0,1
529,13816,0,0,1
530,13820,0,0,1
531,13823,0,0,1
532,13830,0,0,1
533,13846,0,0,1
534,13848,0,0,1
535,13893,0,0,1
536,13978,0,0,1
537,14039,0,0,1
538,14061,0,0,1
539,14111,0,0,1
540,14112,0,0,1
541,14118,0,0,1
542,14148,0,0,1
543,14202,0,0,1
544,14213,0,3,0
545,14244,0,0,1
546,14265,0,0,1
547,14269,0,0,1
548,14270,0,0,1
549,14277,0,0,1
550,14282,0,0,1
551,14289,0,0,1
552,14295,0,0,1
553,14329,0,0,1
554,14346,0,0,1
555,14370,0,0,1
556,14387,0,0,1
557,14403,0,0,1
558,14408,0,0,1
559,14419,0,2,0
560,14460,0,0,1
561,14479,0,0,1
562,14488,0,2,0
563,14499,0,0,1
564,14527,0,0,1
565,14560,0,0,1
566,14621,0,0,1
567,14634,0,0,1
568,14701,0,0,1
569,14708,0,0,1
570,14719,0,0,1
571,14726,0,0,1
572,14735,0,0,1
573,14737,0,0,1
574,14744,0,0,1
575,14760,0,0,1
576,14793,0,0,1
577,14821,0,0,1
578,14873,0,0,1
579,14874,0,0,1
580,14933,0,1,0
581,14947,0,0,1
582,14948,0,0,1
583,14963,0,0,1
584,14987,0,0,1
585,15024,0,0,1
586,15053,0,0,1
587,15062,0,0,1
588,15068,0,3,0
589,15078,0,0,1
590,15140,0,0,1
591,15155,0,0,1
592,15165,0,0,1
593,15255,0,0,1
594,15261,0,0,1
595,15273,0,0,1
596,15289,0,0,1
597,15310,0,0,1
598,15366,0,0,1
599,15378,0,0,1
600,15413,0,0,1
601,15454,0,0,1
602,15464,0,0,1
603,15477,0,0,1
604,15535,0,0,1
605,15610,0,0,1
606,15624,0,0,1
607,15683,0,0,1
608,15747,0,0,1
609,15804,0,0,1
610,15826,0,0,1
611,15827,0,0,1
612,15828,0,0,1
613,15840,0,0,1
614,15852,0,0,1
615,15855,0,0,1
616,15905,0,0,1
617,15973,0,0,1
618,16037,0,0,1
619,16079,0,0,1
620,16109,0,2,0
621,16118,0,0,1
622,16131,0,0,1
623,16137,0,0,1
624,16150,0,0,1
625,16165,0,0,1
626,16188,0,0,1
627,16212,0,0,1
628,16239,0,0,1
629,16306,0,0,1
630,16317,0,0,1
631,16320,0,0,1
632,16334,0,0,1
633,16347,0,0,1
634,16366,0,0,1
635,16371,0,0,1
636,16414,0,0,1
637,16440,0,0,1
638,16445,0,0,1
639,16456,0,0,1
640,16480,0,0,1
641,16495,0,0,1
642,16504,0,0,1
643,16510,0,0,1
644,16518,0,0,1
645,16576,0,0,1
646,16648,0,0,1
647,16707,0,0,1
648,16716,0,0,1
649,16717,0,0,1
650,16813,0,0,1
651,16820,0,0,1
652,16844,0,0,1
653,16852,0,0,1
654,16881,0,0,1
655,16893,0,0,1
656,16913,0,0,1
657,16915,0,0,1
658,16937,0,0,1
659,16955,0,0,1
660,16970,0,0,1
661,17038,0,0,1
662,17039,0,0,1
663,17081,0,2,0
664,17128,0,0,1
665,17149,0,0,1
666,17164,0,0,1
667,17176,0,0,1
668,17221,0,0,1
669,17251,0,0,1
670,17266,0,0,1
671,17269,0,0,1
672,17318,0,0,1
673,17346,0,0,1
674,17367,0,0,1
675,17371,0,0,1
676,17411,0,0,1
677,17417,0,0,1
678,17445,0,1,0
679,17464,0,0,1
680,17474,0,0,1
681,17476,0,0,1
682,17501,0,0,1
683,17559,0,0,1
684,17577,0,0,1
685,17640,0,0,1
686,17642,0,0,1
687,17688,0,0,1
688,17693,0,0,1
689,17823,0,0,1
690,17870,0,0,1
691,17871,0,0,1
692,17872,0,0,1
693,17922,0,0,1
694,17978,0,0,1
695,17982,0,0,1
696,18039,0,0,1
697,18071,0,0,1
698,18120,0,0,1
699,18145,0,0,1
700,18190,0,0,1
701,18199,0,0,1
702,18233,0,3,0
703,18253,0,0,1
704,18263,0,0,1
705,18336,0,0,1
706,18341,0,0,1
707,18389,0,0,1
708,18537,0,0,1
709,18541,0,0,1
710,18585,0,0,1
711,18588,0,0,1
712,18650,0,0,1
713,18657,0,0,1
714,18704,0,0,1
715,18717,0,0,1
716,18720,0,0,1
717,18739,0,0,1
718,18750,0,3,0
719,18752,0,0,1
720,18818,0,0,1
721,18854,0,0,1
722,18928,0,0,1
723,18960,0,0,1
724,18961,0,0,1
725,19015,0,0,1
726,19037,0,0,1
727,19124,0,0,1
728,19176,0,0,1
729,19201,0,3,0
730,19261,0,0,1
731,19276,0,0,1
732,19290,0,0,1
733,19332,0,0,1
734,19391,0,0,1
735,19393,0,0,1
736,19403,0,0,1
737,19430,0,0,1
738,19495,0,0,1
739,19497,0,0,1
740,19523,0,4,0
741,19539,0,0,1
742,19545,0,0,1
743,19573,0,0,1
744,19601,0,0,1
745,19613,0,3,0
746,19641,0,0,1
747,19644,0,0,1
748,19663,0,2,0
749,19668,0,0,1
750,19674,0,0,1
751,19677,0,0,1
752,19690,0,0,1
753,19702,0,0,1
754,19706,0,0,1
755,19716,0,0,1
756,19742,0,0,1
757,19754,0,0,1
758,19755,0,0,1
759,19778,0,0,1
760,19892,0,0,1
761,19909,0,0,1
762,19920,0,0,1
763,19922,0,0,1
764,19923,0,0,1
765,19925,0,0,1
766,19961,0,0,1
767,19962,0,3,0
768,20000,0,0,1
769,20006,0,2,0
770,20044,0,0,1
771,20052,0,0,1
772,20127,0,0,1
773,20134,0,0,1
774,20162,0,0,1
775,20188,0,0,1
776,20228,0,0,1
777,20236,0,0,1
778,20240,0,0,1
779,20261,0,0,1
780,20264,0,0,1
781,20476,0,0,1
782,20570,0,0,1
783,20589,0,0,1
784,20623,0,0,1
785,20645,0,0,1
786,20653,0,0,1
787,20668,0,0,1
788,20716,0,0,1
789,20744,0,0,1
790,20756,0,0,1
791,20802,0,0,1
792,20836,0,0,1
793,20850,0,0,1
794,20893,0,0,1
795,20894,0,0,1
796,20910,0,0,1
797,20914,0,0,1
798,20940,0,0,1
799,20951,0,0,1
800,20960,0,0,1
801,20962,0,0,1
802,21037,0,0,1
803,21077,0,0,1
804,21277,0,0,1
805,21281,0,0,1
806,21291,0,0,1
807,21351,0,0,1
808,21353,0,0,1
809,21378,0,0,1
810,21384,0,0,1
811,21423,0,0,1
812,21450,0,0,1
813,21463,0,0,1
814,21466,0,0,1
815,21467,0,0,1
816,21559,0,0,1
817,21581,0,3,0
818,21594,0,0,1
819,21673,0,0,1
820,21679,0,0,1
821,21686,0,0,1
822,21693,0,0,1
823,21702,0,0,1
824,21708,0,0,1
825,21712,0,0,1
826,21731,0,2,0
827,21757,0,0,1
828,21758,0,0,1
829,21807,0,0,1
830,21813,0,0,1
831,21850,0,0,1
832,21851,0,0,1
833,21866,0,0,1
834,21880,0,0,1
835,21911,0,0,1
836,21928,0,0,1
837,22004,0,1,0
838,22030,0,1,0
839,22032,0,2,0
840,22043,0,0,1
841,22047,0,0,1
842,22050,0,3,0
843,22089,0,0,1
844,22099,0,0,1
845,22157,0,0,1
846,22172,0,0,1
847,22174,0,0,1
848,22191,0,0,1
849,22195,0,0,1
850,22199,0,0,1
851,22209,0,0,1
852,22262,0,0,1
853,22274,0,0,1
854,22357,0,0,1
855,22366,0,0,1
856,22370,0,0,1
857,22376,0,0,1
858,22396,0,0,1
859,22398,0,2,0
860,22446,0,0,1
861,22453,0,0,1
862,22460,0,0,1
863,22468,0,0,1
864,22600,0,0,1
865,22639,0,0,1
866,22656,0,0,1
867,22682,0,0,1
868,22710,0,0,1
869,22712,0,0,1
870,22721,0,0,1
871,22730,0,0,1
872,22742,0,0,1
873,22809,0,0,1
874,22858,0,0,1
875,22913,0,0,1
876,22959,0,0,1
877,22967,0,1,0
878,23014,0,0,1
879,23015,0,0,1
880,23109,0,0,1
881,23117,0,0,1
882,23122,0,0,1
883,23125,0,0,1
884,23127,0,0,1
885,23152,0,0,1
886,23154,0,0,1
887,23159,0,0,1
888,23167,0,0,1
889,23169,0,0,1
890,23207,0,0,1
891,23215,0,0,1
892,23344,0,0,1
893,23362,0,0,1
894,23366,0,1,0
895,23409,0,0,1
896,23415,0,0,1
897,23465,0,0,1
898,23470,0,0,1
899,23474,0,0,1
900,23476,0,0,1
901,23512,0,0,1
902,23542,0,0,1
903,23586,0,0,1
904,23603,0,0,1
905,23623,0,0,1
906,23644,0,0,1
907,23662,0,0,1
908,23674,0,0,1
909,23714,0,0,1
910,23720,0,0,1
911,23744,0,0,1
912,23782,0,0,1
913,23794,0,0,1
914,23795,0,0,1
915,23820,0,0,1
916,23843,0,0,1
917,23874,0,0,1
918,23885,0,0,1
919,23944,0,0,1
920,23986,0,0,1
921,24079,0,0,1
922,24081,0,2,0
923,24088,0,0,1
924,24112,0,0,1
925,24139,0,3,0
926,24155,0,0,1
927,24169,0,0,1
928,24268,0,1,0
929,24309,0,0,1
930,24335,0,1,0
931,24354,0,0,1
932,24398,0,0,1
933,24399,0,0,1
934,24435,0,0,1
935,24443,0,0,1
936,24488,0,0,1
937,24491,0,0,1
938,24526,0,0,1
939,24548,0,0,1
940,24576,0,0,1
941,24579,0,0,1
942,24580,0,0,1
943,24625,0,0,1
944,24636,0,0,1
945,24661,0,0,1
946,24666,0,0,1
947,24670,0,0,1
948,24681,0,0,1
949,24704,0,0,1
950,24729,0,0,1
951,24734,0,0,1
952,24745,0,0,1
953,24787,0,0,1
954,24847,0,0,1
955,24853,0,0,1
956,24862,0,0,1
957,24898,0,0,1
958,24906,0,0,1
959,24910,0,0,1
960,24942,0,0,1
961,24957,0,0,1
962,24961,0,0,1
963,24962,0,0,1
964,24978,0,0,1
965,24988,0,0,1
966,24994,0,0,1
967,25049,0,0,1
968,25054,0,0,1
969,25062,0,0,1
970,25070,0,0,1
971,25138,0,0,1
972,25149,0,0,1
973,25194,0,0,1
974,25221,0,0,1
975,25222,0,0,1
976,25242,0,0,1
977,25273,0,0,1
978,25371,0,0,1
979,25376,0,0,1
980,25379,0,0,1
981,25386,0,2,0
982,25409,0,0,1
983,25412,0,0,1
984,25464,0,0,1
985,25467,0,0,1
986,25488,0,0,1
987,25530,0,0,1
988,25549,0,0,1
989,25568,0,0,1
990,25572,0,0,1
991,25605,0,1,0
992,25628,0,0,1
993,25659,0,0,1
994,25660,0,0,1
995,25667,0,0,1
996,25732,0,2,0
997,25779,0,0,1
998,25854,0,0,1
999,26000,0,0,1
1000,26041,0,0,1
1001,26066,0,0,1
1002,26085,0,0,1
1003,26086,0,0,1
1004,26126,0,0,1
1005,26165,0,0,1
1006,26185,0,0,1
1007,26192,0,0,1
1008,26216,0,0,1
1009,26223,0,0,1
1010,26226,0,0,1
1011,26231,0,0,1
1012,26236,0,0,1
1013,26239,0,0,1
1014,26346,0,0,1
1015,26360,0,0,1
1016,26367,0,0,1
1017,26410,0,0,1
1018,26420,0,0,1
1019,26431,0,3,0
1020,26455,0,0,1
1021,26484,0,0,1
1022,26528,0,0,1
1023,26555,0,0,1
1024,26564,0,0,1
1025,26577,0,0,1
1026,26581,0,0,1
1027,26630,0,0,1
1028,26633,0,0,1
1029,26654,0,0,1
1030,26716,0,0,1
1031,26727,0,0,1
1032,26745,0,3,0
1033,26807,0,0,1
1034,26814,0,0,1
1035,26824,0,0,1
1036,26832,0,0,1
1037,26841,0,0,1
1038,26897,0,0,1
1039,26920,0,0,1
1040,26978,0,0,1
1041,26982,0,0,1
1042,26996,0,0,1
1043,27006,0,0,1
1044,27017,0,0,1
1045,27054,0,0,1
1046,27085,0,0,1
1047,27089,0,0,1
1048,27115,0,0,1
1049,27152,0,2,0
1050,27155,0,0,1
1051,27266,0,0,1
1052,27324,0,0,1
1053,27336,0,0,1
1054,27393,0,0,1
1055,27432,0,0,1
1056,27483,0,0,1
1057,27485,0,0,1
1058,27504,0,0,1
1059,27558,0,0,1
1060,27576,0,0,1
1061,27725,0,0,1
1062,27752,0,0,1
1063,27790,0,0,1
1064,27807,0,0,1
1065,27906,0,0,1
1066,27925,0,0,1
1067,27960,0,0,1
1068,27962,0,0,1
1069,28011,0,0,1
1070,28075,0,0,1
1071,28089,0,0,1
1072,28217,0,0,1
1073,28245,0,0,1
1074,28287,0,0,1
1075,28400,0,0,1
1076,28521,0,0,1
1077,28527,0,0,1
1078,28536,0,0,1
1079,28537,0,0,1
1080,28646,0,0,1
1081,28694,0,0,1
1082,28698,0,0,1
1083,28709,0,0,1
1084,28737,0,0,1
1085,28760,0,0,1
1086,28790,0,0,1
1087,28832,0,0,1
1088,28857,0,0,1
1089,28990,0,0,1
1090,29080,0,0,1
1091,29102,0,0,1
1092,29140,0,0,1
1093,29210,0,0,1
1094,29259,0,0,1
1095,29266,0,0,1
1096,29287,0,2,0
1097,29299,0,0,1
1098,29302,0,0,1
1099,29365,0,0,1
1100,29420,0,0,1
1101,29468,0,0,1
1102,29492,0,0,1
1103,29509,0,2,0
1104,29528,0,0,1
1105,29533,0,0,1
1106,29534,0,0,1
1107,29558,0,0,1
1108,29613,0,0,1
1109,29659,0,0,1
1110,29676,0,0,1
1111,29691,0,0,1
1112,29705,0,0,1
1113,29719,0,0,1
1114,29749,0,0,1
1115,29788,0,0,1
1116,29797,0,0,1
1117,29804,0,0,1
1118,29806,0,0,1
1119,29831,0,0,1
1120,29834,0,0,1
1121,29842,0,0,1
1122,29865,0,0,1
1123,29886,0,0,1
1124,29887,0,0,1
1125,29912,0,0,1
1126,29938,0,0,1
1127,29962,0,0,1
1128,30025,0,0,1
1129,30046,0,0,1
1130,30091,0,0,1
1131,30107,0,0,1
1132,30115,0,0,1
1133,30120,0,0,1
1134,30163,0,0,1
1135,30177,0,0,1
1136,30199,0,0,1
1137,30201,0,0,1
1138,30212,0,0,1
1139,30224,0,0,1
1140,30277,0,0,1
1141,30302,0,0,1
1142,30377,0,0,1
1143,30393,0,0,1
1144,30394,0,0,1
1145,30425,0,0,1
1146,30434,0,0,1
1147,30450,0,0,1
1148,30453,0,0,1
1149,30456,0,0,1
1150,30486,0,0,1
1151,30490,0,0,1
1152,30501,0,0,1
1153,30528,0,0,1
1154,30544,0,0,1
1155,30562,0,0,1
1156,30606,0,0,1
1157,30614,0,0,1
1158,30626,0,0,1
1159,30666,0,0,1
1160,30683,0,0,1
1161,30692,0,0,1
1162,30743,0,0,1
1163,30778,0,0,1
1164,30810,0,0,1
1165,30818,0,0,1
1166,30871,0,0,1
1167,30884,0,0,1
1168,30916,0,0,1
1169,30921,0,0,1
1170,30948,0,0,1
1171,30969,0,0,1
1172,31077,0,0,1
1173,31094,0,0,1
1174,31166,0,0,1
1175,31167,0,0,1
1176,31183,0,0,1
1177,31230,0,0,1
1178,31243,0,0,1
1179,31252,0,0,1
1180,31268,0,2,0
1181,31272,0,0,1
1182,31286,0,2,0
1183,31318,0,0,1
1184,31344,0,2,0
1185,31378,0,0,1
1186,31380,0,0,1
1187,31422,0,0,1
1188,31436,0,0,1
1189,31467,0,0,1
1190,31479,0,0,1
1191,31486,0,0,1
1192,31510,0,0,1
1193,31512,0,0,1
1194,31591,0,0,1
1195,31615,0,0,1
1196,31646,0,0,1
1197,31692,0,0,1
1198,31693,0,0,1
1199,31832,0,0,1
1200,31876,0,0,1
1201,31959,0,0,1
1202,31976,0,0,1
1203,31990,0,0,1
1204,32004,0,0,1
1205,32060,0,0,1
1206,32074,0,0,1
1207,32092,0,0,1
1208,32116,0,0,1
1209,32153,0,0,1
1210,32167,0,0,1
1211,32209,0,0,1
1212,32224,0,0,1
1213,32252,0,0,1
1214,32328,0,0,1
1215,32350,0,0,1
1216,32364,0,0,1
1217,32392,0,0,1
1218,32535,0,0,1
1219,32698,0,0,1
1220,32733,0,0,1
1221,32744,0,3,0
1222,32777,0,0,1
1223,32814,0,0,1
1224,32836,0,0,1
1225,32870,0,0,1
1226,32948,0,0,1
1227,33028,0,0,1
1228,33040,0,0,1
1229,33042,0,0,1
1230,33063,0,0,1
1231,33066,0,0,1
1232,33104,0,0,1
1233,33150,0,0,1
1234,33151,0,0,1
1235,33160,0,0,1
1236,33177,0,3,0
1237,33225,0,0,1
1238,33256,0,3,0
1239,33267,0,0,1
1240,33288,0,0,1
1241,33302,0,0,1
1242,33321,0,0,1
1243,33358,0,0,1
1244,33437,0,0,1
1245,33456,0,0,1
1246,33460,0,0,1
1247,33478,0,0,1
1248,33490,0,0,1
1249,33513,0,0,1
1250,33514,0,0,1
1251,33545,0,0,1
1252,33577,0,2,0
1253,33588,0,0,1
1254,33591,0,3,0
1255,33602,0,0,1
1256,33609,0,0,1
1257,33627,0,0,1
1258,33656,0,0,1
1259,33743,0,0,1
1260,33774,0,0,1
1261,33803,0,0,1
1262,33848,0,0,1
1263,33889,0,0,1
1264,33958,0,0,1
1265,34057,0,0,1
1266,34103,0,0,1
1267,34125,0,0,1
1268,34141,0,0,1
1269,34211,0,0,1
1270,34348,0,0,1
1271,34349,0,0,1
1272,34435,0,0,1
1273,34441,0,0,1
1274,34446,0,2,0
1275,34465,0,0,1
1276,34499,0,2,0
1277,34501,0,0,1
1278,34512,0,0,1
1279,34524,0,0,1
1280,34566,0,0,1
1281,34571,0,0,1
1282,34574,0,0,1
1283,34615,0,2,0
1284,34621,0,1,0
1285,34663,0,0,1
1286,34695,0,0,1
1287,34728,0,0,1
1288,34841,0,0,1
1289,34873,0,0,1
1290,34900,0,3,0
1291,34926,0,0,1
1292,34955,0,0,1
1293,34962,0,0,1
1294,34974,0,0,1
1295,34993,0,0,1
1296,35030,0,0,1
1297,35053,0,4,0
1298,35055,0,0,1
1299,35166,0,0,1
1300,35246,0,0,1
1301,35257,0,0,1
1302,35263,0,0,1
1303,35293,0,0,1
1304,35336,0,0,1
1305,35339,0,0,1
1306,35409,0,0,1
1307,35440,0,0,1
1308,35456,0,0,1
1309,35461,0,0,1
1310,35521,0,0,1
1311,35563,0,0,1
1312,35568,0,0,1
1313,35593,0,0,1
1314,35614,0,0,1
1315,35643,0,0,1
1316,35713,0,0,1
1317,35770,0,0,1
1318,35956,0,0,1
1319,35967,0,0,1
1320,35984,0,0,1
1321,36018,0,0,1
1322,36037,0,0,1
1323,36115,0,0,1
1324,36119,0,0,1
1325,36124,0,0,1
1326,36153,0,0,1
1327,36185,0,0,1
1328,36187,0,0,1
1329,36290,0,3,0
1330,36346,0,0,1
1331,36383,0,0,1
1332,36388,0,0,1
1333,36392,0,0,1
1334,36438,0,0,1
1335,36441,0,0,1
1336,36487,0,0,1
1337,36501,0,3,0
1338,36510,0,0,1
1339,36533,0,0,1
1340,36601,0,0,1
1341,36604,0,0,1
1342,36605,0,3,0
1343,36611,0,0,1
1344,36613,0,0,1
1345,36626,0,0,1
1346,36666,0,0,1
1347,36671,0,0,1
1348,36672,0,0,1
1349,36676,0,0,1
1350,36680,0,0,1
1351,36684,0,0,1
1352,36692,0,0,1
1353,36712,0,0,1
1354,36726,0,0,1
1355,36730,0,0,1
1356,36736,0,0,1
1357,36746,0,0,1
1358,36758,0,0,1
1359,36790,0,0,1
1360,36833,0,0,1
1361,36880,0,0,1
1362,36944,0,0,1
1363,36948,0,0,1
1364,36999,0,0,1
1365,37048,0,0,1
1366,37069,0,0,1
1367,37098,0,0,1
1368,37113,0,0,1
1369,37160,0,0,1
1370,37314,0,0,1
1371,37331,0,3,0
1372,37380,0,0,1
1373,37483,0,0,1
1374,37501,0,0,1
1375,37510,0,0,1
1376,37545,0,0,1
1377,37555,0,0,1
1378,37572,0,0,1
1379,37583,0,0,1
1380,37594,0,0,1
1381,37634,0,0,1
1382,37639,0,0,1
1383,37692,0,0,1
1384,37739,0,0,1
1385,37748,0,0,1
1386,37792,0,0,1
1387,37800,0,0,1
1388,37802,0,0,1
1389,37831,0,0,1
1390,37850,0,0,1
1391,38003,0,0,1
1392,38032,0,0,1
1393,38064,0,0,1
1394,38068,0,0,1
1395,38078,0,0,1
1396,38111,0,0,1
1397,38127,0,0,1
1398,38180,0,0,1
1399,38209,0,0,1
1400,38248,0,0,1
1401,38261,0,0,1
1402,38267,0,0,1
1403,38313,0,0,1
1404,38315,0,0,1
1405,38340,0,0,1
1406,38358,0,0,1
1407,38396,0,0,1
1408,38441,0,0,1
1409,38458,0,0,1
1410,38479,0,0,1
1411,38624,0,0,1
1412,38641,0,0,1
1413,38646,0,0,1
1414,38661,0,0,1
1415,38720,0,0,1
1416,38747,0,0,1
1417,38762,0,0,1
1418,38777,0,0,1
1419,38783,0,0,1
1420,38809,0,0,1
1421,38810,0,0,1
1422,38844,0,0,1
1423,38847,0,0,1
1424,38850,0,0,1
1425,38865,0,0,1
1426,38867,0,0,1
1427,38900,0,0,1
1428,39026,0,0,1
1429,39060,0,0,1
1430,39092,0,0,1
1431,39106,0,0,1
1432,39131,0,0,1
1433,39201,0,0,1
1434,39210,0,0,1
1435,39269,0,0,1
1436,39280,0,0,1
1437,39293,0,0,1
1438,39294,0,0,1
1439,39338,0,0,1
1440,39447,0,0,1
1441,39465,0,0,1
1442,39471,0,0,1
1443,39472,0,0,1
1444,39502,0,0,1
1445,39618,0,0,1
1446,39629,0,0,1
1447,39682,0,0,1
1448,39697,0,0,1
1449,39710,0,0,1
1450,39725,0,0,1
1451,39729,0,2,0
1452,39736,0,2,0
1453,39772,0,0,1
1454,39778,0,0,1
1455,39784,0,0,1
1456,39815,0,3,0
1457,39830,0,0,1
1458,39853,0,0,1
1459,39862,0,0,1
1460,39908,0,0,1
1461,39929,0,0,1
1462,39959,0,0,1
1463,39969,0,0,1
1464,39985,0,0,1
1465,39991,0,0,1
1466,40004,0,0,1
1467,40125,0,0,1
1468,40146,0,0,1
1469,40190,0,0,1
1470,40205,0,0,1
1471,40228,0,0,1
1472,40245,0,0,1
1473,40302,0,0,1
1474,40325,0,0,1
1475,40357,0,0,1
1476,40383,0,0,1
1477,40391,0,0,1
1478,40406,0,0,1
1479,40407,0,0,1
1480,40415,0,0,1
1481,40417,0,3,0
1482,40424,0,0,1
1483,40477,0,2,0
1484,40478,0,0,1
1485,40489,0,0,1
1486,40514,0,0,1
1487,40521,0,0,1
1488,40524,0,0,1
1489,40539,0,0,1
1490,40681,0,0,1
1491,40710,0,0,1
1492,40827,0,0,1
1493,40832,0,0,1
1494,40834,0,0,1
1495,40876,0,0,1
1496,40881,0,1,0
1497,40892,0,0,1
1498,40934,0,0,1
1499,40944,0,0,1
1500,41054,0,0,1
1501,41079,0,0,1
1502,41104,0,2,0
1503,41131,0,0,1
1504,41138,0,0,1
1505,41217,0,1,0
1506,41218,0,2,0
1507,41321,0,0,1
1508,41323,0,0,1
1509,41366,0,0,1
1510,41376,0,0,1
1511,41378,0,0,1
1512,41540,0,0,1
1513,41561,0,0,1
1514,41572,0,0,1
1515,41760,0,0,1
1516,41762,0,0,1
1517,41766,0,0,1
1518,41854,0,0,1
1519,41855,0,0,1
1520,41874,0,0,1
1521,41876,0,0,1
1522,41910,0,0,1
1523,41921,0,0,1
1524,41966,0,0,1
1525,41999,0,0,1
1526,42017,0,0,1
1527,42035,0,0,1
1528,42037,0,0,1
1529,42046,0,0,1
1530,42056,0,0,1
1531,42064,0,2,0
1532,42081,0,0,1
1533,42083,0,0,1
1534,42109,0,0,1
1535,42113,0,0,1
1536,42124,0,0,1
1537,42148,0,0,1
1538,42193,0,0,1
1539,42207,0,0,1
1540,42225,0,0,1
1541,42268,0,0,1
1542,42311,0,0,1
1543,42317,0,0,1
1544,42324,0,0,1
1545,42330,0,2,0
1546,42361,0,0,1
1547,42376,0,0,1
1548,42406,0,0,1
1549,42420,0,0,1
1550,42441,0,0,1
1551,42460,0,0,1
1552,42492,0,0,1
1553,42566,0,0,1
1554,42582,0,0,1
1555,42657,0,1,0
1556,42661,0,0,1
1557,42669,0,0,1
1558,42672,0,3,0
1559,42760,0,0,1
1560,42846,0,0,1
1561,42850,0,0,1
1562,42860,0,0,1
1563,42889,0,0,1
1564,42928,0,0,1
1565,42975,0,0,1
1566,43032,0,0,1
1567,43071,0,0,1
1568,43090,0,0,1
1569,43110,0,0,1
1570,43115,0,0,1
1571,43174,0,0,1
1572,43200,0,0,1
1573,43221,0,0,1
1574,43234,0,0,1
1575,43240,0,0,1
1576,43261,0,1,0
1577,43282,0,0,1
1578,43362,0,0,1
1579,43364,0,0,1
1580,43388,0,0,1
1581,43409,0,0,1
1582,43435,0,0,1
1583,43443,0,0,1
1584,43467,0,0,1
1585,43509,0,0,1
1586,43535,0,0,1
1587,43545,0,0,1
1588,43569,0,0,1
1589,43602,0,0,1
1590,43625,0,0,1
1591,43747,0,0,1
1592,43753,0,0,1
1593,43755,0,0,1
1594,43775,0,3,0
1595,43777,0,0,1
1596,43787,0,0,1
1597,43795,0,0,1
1598,43809,0,0,1
1599,43834,0,0,1
1600,43841,0,0,1
1601,43860,0,0,1
1602,43926,0,0,1
1603,43956,0,0,1
1604,43971,0,0,1
1605,43973,0,0,1
1606,44012,0,0,1
1607,44025,0,0,1
1608,44031,0,0,1
1609,44070,0,0,1
1610,44112,0,0,1
1611,44144,0,0,1
1612,44170,0,0,1
1613,44182,0,0,1
1614,44292,0,0,1
1615,44311,0,0,1
1616,44342,0,0,1
1617,44376,0,0,1
1618,44414,0,0,1
1619,44417,0,0,1
1620,44428,0,0,1
1621,44441,0,0,1
1622,44451,0,0,1
1623,44461,0,0,1
1624,44469,0,3,0
1625,44502,0,0,1
1626,44518,0,2,0
1627,44525,0,0,1
1628,44546,0,0,1
1629,44552,0,0,1
1630,44647,0,2,0
1631,44662,0,0,1
1632,44665,0,0,1
1633,44701,0,0,1
1634,44715,0,0,1
1635,44767,0,0,1
1636,44778,0,0,1
1637,44794,0,0,1
1638,44809,0,0,1
1639,44824,0,0,1
1640,44851,0,0,1
1641,44854,0,0,1
1642,44934,0,0,1
1643,44992,0,0,1
1644,45003,0,0,1
1645,45005,0,0,1
1646,45029,0,0,1
1647,45032,0,0,1
1648,45043,0,0,1
1649,45051,0,0,1
1650,45072,0,0,1
1651,45085,0,0,1
1652,45098,0,0,1
1653,45107,0,0,1
1654,45168,0,0,1
1655,45171,0,0,1
1656,45182,0,0,1
1657,45227,0,0,1
1658,45239,0,0,1
1659,45242,0,0,1
1660,45251,0,0,1
1661,45285,0,0,1
1662,45315,0,0,1
1663,45394,0,0,1
1664,45396,0,0,1
1665,45449,0,0,1
1666,45511,0,0,1
1667,45520,0,0,1
1668,45540,0,0,1
1669,45575,0,0,1
1670,45585,0,0,1
1671,45606,0,0,1
1672,45685,0,0,1
1673,45689,0,0,1
1674,45727,0,2,0
1675,45742,0,0,1
1676,45757,0,2,0
1677,45766,0,0,1
1678,45792,0,0,1
1679,45826,0,0,1
1680,45827,0,0,1
1681,45837,0,0,1
1682,45839,0,0,1
1683,45842,0,0,1
1684,45887,0,0,1
1685,45915,0,0,1
1686,45919,0,0,1
1687,45946,0,3,0
1688,45959,0,0,1
1689,45983,0,0,1
1690,45991,0,0,1
1691,46086,0,3,0
1692,46097,0,2,0
1693,46150,0,0,1
1694,46179,0,0,1
1695,46212,0,0,1
1696,46217,0,2,0
1697,46222,0,0,1
1698,46257,0,0,1
1699,46270,0,0,1
1700,46280,0,0,1
1701,46300,0,0,1
1702,46303,0,0,1
1703,46328,0,2,0
1704,46332,0,0,1
1705,46394,0,0,1
1706,46428,0,0,1
1707,46445,0,0,1
1708,46446,0,0,1
1709,46452,0,0,1
1710,46467,0,0,1
1711,46483,0,0,1
1712,46504,0,0,1
1713,46541,0,0,1
1714,46566,0,0,1
1715,46583,0,0,1
1716,46596,0,3,0
1717,46606,0,0,1
1718,46635,0,2,0
1719,46664,0,0,1
1720,46665,0,0,1
1721,46687,0,0,1
1722,46697,0,0,1
1723,46699,0,0,1
1724,46700,0,0,1
1725,46731,0,0,1
1726,46808,0,0,1
1727,46810,0,0,1
1728,46822,0,0,1
1729,46836,0,0,1
1730,46849,0,0,1
1731,46867,0,0,1
1732,46877,0,0,1
1733,46910,0,0,1
1734,46913,0,0,1
1735,46927,0,0,1
1736,46956,0,0,1
1737,46986,0,0,1
1738,46991,0,0,1
1739,47026,0,0,1
1740,47047,0,0,1
1741,47063,0,0,1
1742,47092,0,0,1
1743,47096,0,0,1
1744,47115,0,0,1
1745,47139,0,0,1
1746,47152,0,0,1
1747,47204,0,0,1
1748,47249,0,0,1
1749,47261,0,0,1
1750,47278,0,0,1
1751,47384,0,0,1
1752,47392,0,0,1
1753,47402,0,0,1
1754,47442,0,0,1
1755,47450,0,0,1
1756,47457,0,0,1
1757,47463,0,0,1
1758,47486,0,0,1
1759,47497,0,0,1
1760,47510,0,0,1
1761,47579,0,0,1
1762,47629,0,0,1
1763,47641,0,0,1
1764,47650,0,0,1
1765,47694,0,0,1
1766,47756,0,0,1
1767,47776,0,0,1
1768,47796,0,0,1
1769,47814,0,0,1
1770,47853,0,0,1
1771,47875,0,0,1
1772,47888,0,0,1
1773,47909,0,0,1
1774,47939,0,0,1
1775,47965,0,0,1
1776,48008,0,0,1
1777,48018,0,0,1
1778,48041,0,0,1
1779,48052,0,0,1
1780,48066,0,0,1
1781,48080,0,0,1
1782,48157,0,0,1
1783,48299,0,2,0
1784,48303,0,0,1
1785,48367,0,0,1
1786,48394,0,0,1
1787,48415,0,0,1
1788,48419,0,0,1
1789,48458,0,0,1
1790,48479,0,0,1
1791,48484,0,0,1
1792,48505,0,0,1
1793,48535,0,0,1
1794,48536,0,0,1
1795,48578,0,0,1
1796,48659,0,0,1
1797,48685,0,0,1
1798,48700,0,0,1
1799,48712,0,0,1
1800,48730,0,0,1
1801,48760,0,1,0
1802,48768,0,0,1
1803,48769,0,0,1
1804,48845,0,0,1
1805,48847,0,0,1
1806,48891,0,0,1
1807,48903,0,0,1
1808,48921,0,0,1
1809,48962,0,0,1
1810,48973,0,0,1
1811,49009,0,0,1
1812,49062,0,0,1
1813,49076,0,0,1
1814,49083,0,0,1
1815,49091,0,0,1
1816,49109,0,0,1
1817,49110,0,0,1
1818,49130,0,0,1
1819,49136,0,0,1
1820,49142,0,3,0
1821,49151,0,0,1
1822,49181,0,0,1
1823,49187,0,0,1
1824,49218,0,0,1
1825,49219,0,2,0
1826,49227,0,0,1
1827,49278,0,0,1
1828,49290,0,2,0
1829,49294,0,0,1
1830,49306,0,0,1
1831,49308,0,0,1
1832,49318,0,0,1
1833,49359,0,0,1
1834,49361,0,0,1
1835,49365,0,2,0
1836,49385,0,0,1
1837,49450,0,0,1
1838,49501,0,0,1
1839,49524,0,0,1
1840,49572,0,0,1
1841,49622,0,0,1
1842,49634,0,0,1
1843,49636,0,0,1
1844,49666,0,0,1
1845,49702,0,0,1
1846,49732,0,0,1
1847,49767,0,0,1
1848,49825,0,0,1
1849,49837,0,2,0
1850,49893,0,0,1
1851,49942,0,3,0
1852,50003,0,0,1
1853,50044,0,0,1
1854,50077,0,0,1
1855,50082,0,0,1
1856,50204,0,0,1
1857,50222,0,0,1
1858,50224,0,0,1
1859,50323,0,0,1
1860,50344,0,0,1
1861,50374,0,0,1
1862,50411,0,0,1
1863,50430,0,0,1
1864,50488,0,0,1
1865,50508,0,0,1
1866,50535,0,0,1
1867,50564,0,0,1
1868,50578,0,0,1
1869,50599,0,0,1
1870,50655,0,0,1
1871,50670,0,0,1
1872,50725,0,2,0
1873,50747,0,0,1
1874,50803,0,0,1
1875,50834,0,0,1
1876,50851,0,0,1
1877,50858,0,2,0
1878,50860,0,0,1
1879,50876,0,0,1
1880,50961,0,0,1
1881,50973,0,0,1
1882,50978,0,0,1
1883,51068,0,0,1
1884,51147,0,0,1
1885,51187,0,0,1
1886,51256,0,0,1
1887,51341,0,0,1
1888,51346,0,0,1
1889,51388,0,0,1
1890,51400,0,0,1
1891,51401,0,0,1
1892,51489,0,0,1
1893,51498,0,0,1
1894,51522,0,0,1
1895,51543,0,0,1
1896,51591,0,0,1
1897,51613,0,0,1
1898,51659,0,0,1
1899,51717,0,3,0
1900,51736,0,2,0
1901,51745,0,0,1
1902,51754,0,0,1
1903,51800,0,0,1
1904,51808,0,0,1
1905,51833,0,0,1
1906,51849,0,0,1
1907,51868,0,0,1
1908,51926,0,0,1
1909,51927,0,0,1
1910,51941,0,0,1
1911,51942,0,0,1
1912,51950,0,0,1
1913,51993,0,0,1
1914,52013,0,0,1
1915,52033,0,0,1
1916,52070,0,0,1
1917,52108,0,0,1
1918,52131,0,0,1
1919,52140,0,0,1
1920,52186,0,3,0
1921,52245,0,0,1
1922,52248,0,0,1
1923,52325,0,0,1
1924,52361,0,0,1
1925,52381,0,0,1
1926,52406,0,0,1
1927,52408,0,0,1
1928,52423,0,0,1
1929,52466,0,0,1
1930,52498,0,0,1
1931,52512,0,0,1
1932,52534,0,2,0
1933,52538,0,0,1
1934,52546,0,1,0
1935,52638,0,0,1
1936,52686,0,2,0
1937,52698,0,0,1
1938,52724,0,0,1
1939,52926,0,0,1
1940,52964,0,0,1
1941,53005,0,0,1
1942,53063,0,0,1
1943,53098,0,0,1
1944,53120,0,0,1
1945,53140,0,0,1
1946,53160,0,0,1
1947,53191,0,0,1
1948,53199,0,0,1
1949,53291,0,0,1
1950,53305,0,0,1
1951,53322,0,0,1
1952,53366,0,0,1
1953,53374,0,0,1
1954,53388,0,0,1
1955,53463,0,3,0
1956,53475,0,0,1
1957,53506,0,0,1
1958,53512,0,0,1
1959,53560,0,0,1
1960,53597,0,0,1
1961,53614,0,0,1
1962,53665,0,2,0
1963,53687,0,0,1
1964,53709,0,0,1
1965,53723,0,0,1
1966,53753,0,0,1
1967,53831,0,0,1
1968,53835,0,0,1
1969,53845,0,0,1
1970,53900,0,0,1
1971,53928,0,0,1
1972,53933,0,2,0
1973,53939,0,0,1
1974,53958,0,0,1
1975,53996,0,0,1
1976,54034,0,0,1
1977,54052,0,0,1
1978,54121,0,0,1
1979,54145,0,0,1
1980,54163,0,1,0
1981,54197,0,0,1
1982,54245,0,0,1
1983,54266,0,0,1
1984,54287,0,0,1
1985,54322,0,0,1
1986,54328,0,0,1
1987,54384,0,0,1
1988,54385,0,0,1
1989,54423,0,0,1
1990,54508,0,0,1
1991,54510,0,0,1
1992,54520,0,0,1
1993,54548,0,0,1
1994,54583,0,0,1
1995,54611,0,0,1
1996,54615,0,0,1
1997,54621,0,0,1
1998,54622,0,0,1
1999,54628,0,3,0
2000,54710,0,0,1
2001,54734,0,0,1
2002,54748,0,0,1
2003,54764,0,0,1
2004,54766,0,0,1
2005,54793,0,3,0
2006,54809,0,0,1
2007,54812,0,0,1
2008,54846,0,0,1
2009,54890,0,0,1
2010,54896,0,0,1
2011,54944,0,0,1
2012,54979,0,0,1
2013,54981,0,2,0
2014,55000,0,0,1
2015,55001,0,0,1
2016,55005,0,0,1
2017,55033,0,0,1
2018,55035,0,0,1
2019,55064,0,0,1
2020,55072,0,0,1
2021,55092,0,0,1
2022,55096,0,0,1
2023,55112,0,0,1
2024,55120,0,0,1
2025,55136,0,0,1
2026,55145,0,0,1
2027,55170,0,0,1
2028,55205,0,0,1
2029,55213,0,0,1
2030,55226,0,0,1
2031,55248,0,0,1
2032,55271,0,0,1
2033,55280,0,0,1
2034,55322,0,0,1
2035,55400,0,0,1
2036,55411,0,0,1
2037,55419,0,2,0
2038,55443,0,0,1
2039,55447,0,0,1
2040,55454,0,0,1
2041,55456,0,0,1
2042,55510,0,0,1
2043,55520,0,0,1
2044,55528,0,0,1
2045,55576,0,0,1
2046,55591,0,0,1
2047,55619,0,1,0
2048,55631,0,0,1
2049,55675,0,0,1
2050,55729,0,0,1
2051,55748,0,0,1
2052,55781,0,2,0
2053,55842,0,1,0
2054,55869,0,0,1
2055,55885,0,0,1
2056,55891,0,0,1
2057,55899,0,0,1
2058,55900,0,0,1
2059,55916,0,0,1
2060,55931,0,0,1
2061,55972,0,0,1
2062,55997,0,0,1
2063,56006,0,0,1
2064,56017,0,0,1
2065,56028,0,0,1
2066,56047,0,0,1
2067,56064,0,2,0
2068,56069,0,0,1
2069,56099,0,0,1
2070,56120,0,0,1
2071,56126,0,0,1
2072,56171,0,0,1
2073,56220,0,0,1
2074,56221,0,0,1
2075,56224,0,0,1
2076,56225,0,0,1
2077,56285,0,0,1
2078,56286,0,0,1
2079,56365,0,1,0
2080,56385,0,0,1
2081,56390,0,0,1
2082,56412,0,0,1
2083,56483,0,0,1
2084,56490,0,0,1
2085,56546,0,0,1
2086,56548,0,0,1
2087,56582,0,0,1
2088,56618,0,0,1
2089,56649,0,0,1
2090,56655,0,0,1
2091,56763,0,0,1
2092,56791,0,0,1
2093,56795,0,0,1
2094,56800,0,0,1
2095,56808,0,0,1
2096,56828,0,0,1
2097,56904,0,0,1
2098,56930,0,0,1
2099,56954,0,0,1
2100,57065,0,0,1
2101,57085,0,0,1
2102,57101,0,0,1
2103,57106,0,0,1
2104,57114,0,0,1
2105,57189,0,0,1
2106,57208,0,0,1
2107,57238,0,0,1
2108,57267,0,0,1
2109,57273,0,0,1
2110,57332,0,0,1
2111,57380,0,0,1
2112,57397,0,0,1
2113,57420,0,0,1
2114,57424,0,0,1
2115,57436,0,0,1
2116,57529,0,0,1
2117,57600,0,0,1
2118,57607,0,0,1
2119,57617,0,0,1
2120,57625,0,0,1
2121,57628,0,0,1
2122,57677,0,0,1
2123,57678,0,0,1
2124,57709,0,0,1
2125,57736,0,0,1
2126,57741,0,0,1
2127,57805,0,3,0
2128,57820,0,0,1
2129,57899,0,0,1
2130,57902,0,0,1
2131,57911,0,1,0
2132,57921,0,0,1
2133,57948,0,0,1
2134,57984,0,0,1
2135,58025,0,0,1
2136,58072,0,0,1
2137,58142,0,0,1
2138,58156,0,0,1
2139,58197,0,0,1
2140,58224,0,0,1
2141,58259,0,0,1
2142,58263,0,0,1
2143,58268,0,0,1
2144,58287,0,0,1
2145,58345,0,0,1
2146,58352,0,2,0
2147,58358,0,0,1
2148,58390,0,0,1
2149,58433,0,0,1
2150,58451,0,0,1
2151,58461,0,0,1
2152,58479,0,0,1
2153,58481,0,0,1
2154,58490,0,0,1
2155,58494,0,0,1
2156,58509,0,0,1
2157,58546,0,0,1
2158,58579,0,0,1
2159,58593,0,0,1
2160,58609,0,0,1
2161,58620,0,0,1
2162,58640,0,0,1
2163,58666,0,0,1
2164,58716,0,0,1
2165,58721,0,3,0
2166,58726,0,0,1
2167,58750,0,0,1
2168,58754,0,0,1
2169,58799,0,0,1
2170,58842,0,0,1
2171,58861,0,0,1
2172,58875,0,0,1
2173,58897,0,0,1
2174,58898,0,0,1
2175,58991,0,0,1
2176,59001,0,0,1
2177,59029,0,0,1
2178,59037,0,1,0
2179,59061,0,0,1
2180,59095,0,0,1
2181,59160,0,0,1
2182,59174,0,0,1
2183,59175,0,0,1
2184,59213,0,0,1
2185,59214,0,0,1
2186,59287,0,0,1
2187,59341,0,0,1
2188,59356,0,0,1
2189,59360,0,0,1
2190,59369,0,0,1
2191,59448,0,0,1
2192,59465,0,0,1
2193,59472,0,0,1
2194,59497,0,0,1
2195,59513,0,0,1
2196,59571,0,0,1
2197,59628,0,0,1
2198,59639,0,0,1
2199,59663,0,0,1
2200,59685,0,0,1
2201,59763,0,0,1
2202,59808,0,0,1
2203,59809,0,0,1
2204,59812,0,0,1
2205,59845,0,0,1
2206,59853,0,0,1
2207,59857,0,0,1
2208,59945,0,0,1
2209,59949,0,0,1
2210,59950,0,0,1
2211,59984,0,0,1
2212,60017,0,0,1
2213,60018,0,0,1
2214,60109,0,0,1
2215,60131,0,0,1
2216,60147,0,0,1
2217,60163,0,0,1
2218,60183,0,0,1
2219,60200,0,0,1
2220,60244,0,0,1
2221,60271,0,0,1
2222,60307,0,0,1
2223,60317,0,0,1
2224,60331,0,0,1
2225,60337,0,0,1
2226,60343,0,0,1
2227,60411,0,0,1
2228,60427,0,0,1
2229,60453,0,0,1
2230,60461,0,0,1
2231,60470,0,0,1
2232,60485,0,0,1
2233,60500,0,0,1
2234,60544,0,0,1
2235,60563,0,0,1
2236,60564,0,0,1
2237,60629,0,0,1
2238,60654,0,0,1
2239,60664,0,0,1
2240,60670,0,0,1
2241,60676,0,0,1
2242,60677,0,0,1
2243,60686,0,0,1
2244,60719,0,0,1
2245,60736,0,0,1
2246,60781,0,0,1
2247,60803,0,2,0
2248,60814,0,0,1
2249,60822,0,0,1
2250,60839,0,0,1
2251,60860,0,0,1
2252,60872,0,0,1
2253,60939,0,0,1
2254,60957,0,0,1
2255,60966,0,1,0
2256,60971,0,0,1
2257,60973,0,0,1
2258,60975,0,0,1
2259,61012,0,0,1
2260,61019,0,0,1
2261,61078,0,0,1
2262,61082,0,0,1
2263,61094,0,0,1
2264,61101,0,0,1
2265,61125,0,4,0
2266,61187,0,0,1
2267,61209,0,0,1
2268,61235,0,0,1
2269,61244,0,0,1
2270,61300,0,0,1
2271,61301,0,0,1
2272,61320,0,0,1
2273,61360,0,0,1
2274,61423,0,0,1
2275,61467,0,0,1
2276,61494,0,0,1
2277,61555,0,0,1
2278,61599,0,0,1
2279,61630,0,0,1
2280,61656,0,0,1
2281,61677,0,0,1
2282,61712,0,0,1
2283,61713,0,0,1
2284,61723,0,0,1
2285,61749,0,0,1
2286,61769,0,0,1
2287,61791,0,0,1
2288,61794,0,0,1
2289,61851,0,0,1
2290,61853,0,0,1
2291,61876,0,0,1
2292,61941,0,0,1
2293,61944,0,0,1
2294,62007,0,0,1
2295,62054,0,0,1
2296,62065,0,0,1
2297,62102,0,0,1
2298,62141,0,2,0
2299,62155,0,0,1
2300,62167,0,0,1
2301,62206,0,0,1
2302,62252,0,1,0
2303,62354,0,0,1
2304,62357,0,0,1
2305,62363,0,0,1
2306,62418,0,0,1
2307,62435,0,0,1
2308,62437,0,0,1
2309,62448,0,0,1
2310,62476,0,0,1
2311,62540,0,0,1
2312,62576,0,0,1
2313,62597,0,0,1
2314,62600,0,0,1
2315,62625,0,0,1
2316,62628,0,0,1
2317,62743,0,0,1
2318,62750,0,0,1
2319,62783,0,0,1
2320,62880,0,0,1
2321,62888,0,0,1
2322,62920,0,0,1
2323,62952,0,0,1
2324,62954,0,0,1
2325,62963,0,0,1
2326,63011,0,0,1
2327,63035,0,0,1
2328,63042,0,0,1
2329,63057,0,0,1
2330,63059,0,0,1
2331,63076,0,0,1
2332,63090,0,0,1
2333,63137,0,0,1
2334,63162,0,0,1
2335,63163,0,0,1
2336,63207,0,0,1
2337,63224,0,0,1
2338,63285,0,0,1
2339,63289,0,0,1
2340,63294,0,0,1
2341,63332,0,0,1
2342,63382,0,0,1
2343,63492,0,0,1
2344,63509,0,0,1
2345,63535,0,0,1
2346,63543,0,0,1
2347,63613,0,0,1
2348,63643,0,0,1
2349,63662,0,0,1
2350,63676,0,0,1
2351,63689,0,0,1
2352,63692,0,0,1
2353,63711,0,0,1
2354,63744,0,0,1
2355,63745,0,0,1
2356,63746,0,0,1
2357,63755,0,0,1
2358,63764,0,0,1
2359,63825,0,0,1
2360,63849,0,0,1
2361,63868,0,0,1
2362,63893,0,0,1
2363,63919,0,0,1
2364,63962,0,0,1
2365,63993,0,0,1
2366,64094,0,0,1
2367,64117,0,0,1
2368,64119,0,0,1
2369,64160,0,0,1
2370,64332,0,0,1
2371,64388,0,0,1
2372,64414,0,0,1
2373,64445,0,0,1
2374,64493,0,0,1
2375,64517,0,0,1
2376,64533,0,0,1
2377,64537,0,0,1
2378,64539,0,0,1
2379,64609,0,0,1
2380,64621,0,0,1
2381,64650,0,1,0
2382,64742,0,0,1
2383,64768,0,0,1
2384,64810,0,2,0
2385,64901,0,0,1
2386,64917,0,0,1
2387,64924,0,0,1
2388,64951,0,0,1
2389,64986,0,0,1
2390,64988,0,0,1
2391,64989,0,0,1
2392,65023,0,0,1
2393,65089,0,0,1
2394,65100,0,0,1
2395,65121,0,0,1
2396,65123,0,0,1
2397,65159,0,0,1
2398,65184,0,0,1
2399,65199,0,0,1
2400,65211,0,0,1
2401,65249,0,0,1
2402,65258,0,0,1
2403,65300,0,0,1
2404,65302,0,0,1
2405,65355,0,0,1
2406,65362,0,0,1
2407,65384,0,0,1
2408,65408,0,0,1
2409,65424,0,0,1
2410,65472,0,0,1
2411,65496,0,0,1
2412,65550,0,0,1
2413,65578,0,0,1
2414,65591,0,0,1
2415,65597,0,0,1
2416,65601,0,0,1
2417,65603,0,0,1
2418,65624,0,0,1
2419,65639,0,0,1
2420,65641,0,0,1
2421,65646,0,0,1
2422,65663,0,0,1
2423,65698,0,0,1
2424,65703,0,0,1
2425,65707,0,0,1
2426,65778,0,0,1
2427,65845,0,0,1
2428,65864,0,0,1
2429,65919,0,0,1
2430,65920,0,0,1
2431,65927,0,0,1
2432,66009,0,3,0
2433,66033,0,0,1
2434,66046,0,0,1
2435,66058,0,0,1
2436,66088,0,0,1
2437,66111,0,0,1
2438,66137,0,0,1
2439,66150,0,0,1
2440,66255,0,0,1
2441,66261,0,0,1
2442,66270,0,0,1
2443,66297,0,0,1
2444,66299,0,0,1
2445,66309,0,0,1
2446,66320,0,0,1
2447,66364,0,0,1
2448,66387,0,0,1
2449,66415,0,0,1
2450,66425,0,0,1
2451,66460,0,0,1
2452,66497,0,0,1
2453,66598,0,0,1
2454,66600,0,0,1
2455,66610,0,0,1
2456,66619,0,0,1
2457,66658,0,0,1
2458,66711,0,0,1
2459,66726,0,0,1
2460,66747,0,2,0
2461,66770,0,0,1
2462,66795,0,0,1
2463,66796,0,2,0
2464,66871,0,0,1
2465,66916,0,0,1
2466,66948,0,0,1
2467,66979,0,0,1
2468,67028,0,0,1
2469,67039,0,0,1
2470,67076,0,0,1
2471,67090,0,0,1
2472,67123,0,0,1
2473,67165,0,0,1
2474,67218,0,0,1
2475,67223,0,0,1
2476,67224,0,0,1
2477,67241,0,0,1
2478,67276,0,0,1
2479,67284,0,0,1
2480,67306,0,0,1
2481,67355,0,0,1
2482,67362,0,0,1
2483,67371,0,0,1
2484,67380,0,0,1
2485,67409,0,0,1
2486,67436,0,0,1
2487,67482,0,0,1
2488,67515,0,0,1
2489,67526,0,0,1
2490,67587,0,0,1
2491,67664,0,0,1
2492,67665,0,0,1
2493,67729,0,0,1
2494,67786,0,0,1
2495,67828,0,0,1
2496,67949,0,0,1
2497,67985,0,0,1
2498,67991,0,3,0
2499,67993,0,0,1
2500,68038,0,0,1
2501,68051,0,0,1
2502,68071,0,0,1
2503,68086,0,0,1
2504,68142,0,0,1
2505,68145,0,2,0
2506,68189,0,3,0
2507,68192,0,0,1
2508,68209,0,0,1
2509,68212,0,0,1
2510,68225,0,0,1
2511,68232,0,0,1
2512,68251,0,0,1
2513,68260,0,0,1
2514,68272,0,0,1
2515,68332,0,0,1
2516,68371,0,0,1
2517,68391,0,0,1
2518,68427,0,0,1
2519,68459,0,0,1
2520,68473,0,0,1
2521,68504,0,0,1
2522,68519,0,0,1
2523,68529,0,0,1
2524,68551,0,0,1
2525,68559,0,0,1
2526,68625,0,0,1
2527,68630,0,0,1
2528,68631,0,0,1
2529,68741,0,0,1
2530,68781,0,0,1
2531,68792,0,0,1
2532,68827,0,0,1
2533,68846,0,0,1
2534,68891,0,0,1
2535,68907,0,0,1
2536,68908,0,0,1
2537,68977,0,0,1
2538,68984,0,0,1
2539,69000,0,0,1
2540,69011,0,0,1
2541,69034,0,3,0
2542,69075,0,0,1
2543,69118,0,0,1
2544,69171,0,0,1
2545,69239,0,0,1
2546,69310,0,0,1
2547,69350,0,0,1
2548,69363,0,0,1
2549,69369,0,0,1
2550,69410,0,0,1
2551,69424,0,0,1
2552,69456,0,0,1
2553,69522,0,0,1
2554,69535,0,0,1
2555,69540,0,0,1
2556,69545,0,0,1
2557,69575,0,3,0
2558,69589,0,0,1
2559,69609,0,0,1
2560,69636,0,0,1
2561,69638,0,0,1
2562,69667,0,0,1
2563,69675,0,0,1
2564,69735,0,0,1
2565,69746,0,2,0
2566,69756,0,0,1
2567,69789,0,0,1
2568,69791,0,0,1
2569,69803,0,0,1
2570,69831,0,1,0
2571,69850,0,0,1
2572,69906,0,0,1
2573,69909,0,0,1
2574,69934,0,0,1
2575,69950,0,0,1
2576,69985,0,0,1
2577,69989,0,0,1
2578,70009,0,0,1
2579,70046,0,0,1
2580,70047,0,0,1
2581,70122,0,0,1
2582,70124,0,3,0
2583,70145,0,0,1
2584,70148,0,0,1
2585,70162,0,0,1
2586,70169,0,0,1
2587,70175,0,0,1
2588,70193,0,0,1
2589,70202,0,0,1
2590,70206,0,0,1
2591,70213,0,0,1
2592,70282,0,0,1
2593,70328,0,0,1
2594,70355,0,0,1
2595,70396,0,0,1
2596,70455,0,2,0
2597,70497,0,0,1
2598,70500,0,0,1
2599,70566,0,0,1
2600,70588,0,0,1
2601,70596,0,0,1
2602,70599,0,0,1
2603,70601,0,0,1
2604,70632,0,0,1
2605,70715,0,1,0
2606,70746,0,0,1
2607,70771,0,0,1
2608,70779,0,0,1
2609,70806,0,0,1
2610,70843,0,0,1
2611,70854,0,0,1
2612,70933,0,0,1
2613,70943,0,0,1
2614,71019,0,0,1
2615,71044,0,0,1
2616,71101,0,0,1
2617,71116,0,0,1
2618,71138,0,2,0
2619,71179,0,0,1
2620,71192,0,0,1
2621,71260,0,2,0
2622,71274,0,0,1
2623,71300,0,0,1
2624,71311,0,0,1
2625,71359,0,0,1
2626,71394,0,2,0
2627,71453,0,3,0
2628,71466,0,0,1
2629,71558,0,0,1
2630,71623,0,0,1
2631,71652,0,0,1
2632,71732,0,0,1
2633,71789,0,0,1
2634,71794,0,0,1
2635,71847,0,0,1
2636,71855,0,0,1
2637,71900,0,0,1
2638,71906,0,0,1
2639,71911,0,0,1
2640,71925,0,0,1
2641,71992,0,0,1
2642,72008,0,0,1
2643,72033,0,0,1
2644,72040,0,0,1
2645,72075,0,0,1
2646,72120,0,0,1
2647,72203,0,0,1
2648,72275,0,3,0
2649,72284,0,0,1
2650,72374,0,0,1
2651,72399,0,0,1
2652,72426,0,0,1
2653,72430,0,0,1
2654,72447,0,2,0
2655,87655,0,0,1
2656,87675,0,0,1
2657,87741,0,0,1
2658,87763,0,0,1
2659,87774,0,0,1
2660,87785,0,0,1
2661,87787,0,0,1
2662,87878,0,0,1
2663,87915,0,0,1
2664,87940,0,0,1
2665,87996,0,0,1
2666,87998,0,0,1
2667,88021,0,0,1
2668,88062,0,0,1
2669,88074,0,0,1
2670,88080,0,0,1
2671,88108,0,0,1
2672,88135,0,0,1
2673,88153,0,0,1
2674,88196,0,2,0
2675,88247,0,0,1
2676,88272,0,0,1
2677,88284,0,0,1
2678,88293,0,0,1
2679,88300,0,0,1
2680,88302,0,0,1
2681,88385,0,0,1
2682,88406,0,0,1
2683,88445,0,0,1
2684,88452,0,0,1
2685,88460,0,0,1
2686,88485,0,0,1
2687,88542,0,0,1
2688,88571,0,0,1
2689,88576,0,0,1
2690,88630,0,0,1
2691,88678,0,0,1
2692,88778,0,0,1
2693,88878,0,0,1
2694,88927,0,0,1
2695,88967,0,0,1
2696,88969,0,0,1
2697,88970,0,0,1
2698,88984,0,0,1
2699,88991,0,0,1
2700,89040,0,0,1
2701,89053,0,0,1
2702,89074,0,0,1
2703,89091,0,0,1
2704,89167,0,0,1
2705,89179,0,0,1
2706,89259,0,1,0
2707,89277,0,0,1
2708,89287,0,0,1
2709,89313,0,0,1
2710,89343,0,0,1
2711,89352,0,0,1
2712,89356,0,0,1
2713,89367,0,0,1
2714,89405,0,0,1
2715,89428,0,0,1
2716,89495,0,0,1
2717,89549,0,0,1
2718,89557,0,0,1
2719,89561,0,0,1
2720,89569,0,0,1
2721,89610,0,0,1
2722,89655,0,0,1
2723,89674,0,0,1
2724,89689,0,0,1
2725,89740,0,0,1
2726,89756,0,0,1
2727,89823,0,0,1
2728,89834,0,0,1
2729,89847,0,0,1
2730,89888,0,0,1
2731,89892,0,0,1
2732,89896,0,0,1
2733,89912,0,0,1
2734,89947,0,0,1
2735,89948,0,0,1
2736,90081,0,0,1
2737,90095,0,0,1
2738,90167,0,0,1
2739,90172,0,0,1
2740,90173,0,0,1
2741,90238,0,0,1
2742,90278,0,0,1
2743,90287,0,0,1
2744,90316,0,0,1
2745,90364,0,0,1
2746,90393,0,0,1
2747,90414,0,0,1
2748,90447,0,0,1
2749,90464,0,0,1
2750,90472,0,0,1
2751,90473,0,0,1
2752,90476,0,0,1
2753,90482,0,0,1
2754,90526,0,0,1
2755,90531,0,0,1
2756,90597,0,0,1
2757,90621,0,2,0
2758,90636,0,0,1
2759,90687,0,0,1
2760,90706,0,0,1
2761,90710,0,0,1
2762,90714,0,0,1
2763,90730,0,0,1
2764,90776,0,0,1
2765,90779,0,0,1
2766,90799,0,0,1
2767,90828,0,0,1
2768,90858,0,0,1
2769,90882,0,0,1
2770,90901,0,3,0
2771,90994,0,0,1
2772,90997,0,0,1
2773,91054,0,2,0
2774,91106,0,0,1
2775,91148,0,0,1
2776,91155,0,0,1
2777,91217,0,0,1
2778,91224,0,0,1
2779,91243,0,0,1
2780,91260,0,0,1
2781,91362,0,0,1
2782,91436,0,0,1
2783,91454,0,0,1
2784,91474,0,0,1
2785,91528,0,0,1
2786,91538,0,0,1
2787,91539,0,0,1
2788,91541,0,0,1
2789,91555,0,0,1
2790,91573,0,0,1
2791,91585,0,0,1
2792,91597,0,0,1
2793,91605,0,0,1
2794,91716,0,0,1
2795,91779,0,0,1
2796,91793,0,2,0
2797,91821,0,0,1
2798,91883,0,0,1
2799,91896,0,0,1
2800,92094,0,0,1
2801,92133,0,0,1
2802,92173,0,0,1
2803,92240,0,0,1
2804,92306,0,0,1
2805,92317,0,0,1
2806,92336,0,0,1
2807,92363,0,0,1
2808,92411,0,0,1
2809,92528,0,0,1
2810,92592,0,0,1
2811,92602,0,0,1
2812,92629,0,0,1
2813,92630,0,0,1
2814,92634,0,0,1
2815,92636,0,0,1
2816,92655,0,0,1
2817,92705,0,0,1
2818,92860,0,0,1
2819,92862,0,0,1
2820,92887,0,0,1
2821,92896,0,0,1
2822,92913,0,0,1
2823,92918,0,0,1
2824,92947,0,0,1
2825,92954,0,0,1
2826,93000,0,0,1
2827,93049,0,0,1
2828,93089,0,0,1
2829,93127,0,0,1
2830,93134,0,0,1
2831,93156,0,3,0
2832,93167,0,0,1
2833,93243,0,0,1
2834,93244,0,0,1
2835,93283,0,0,1
2836,93284,0,0,1
2837,93297,0,0,1
2838,93332,0,0,1
2839,93353,0,0,1
2840,93420,0,0,1
2841,93440,0,0,1
2842,93517,0,0,1
2843,93536,0,0,1
2844,93598,0,0,1
2845,93601,0,0,1
2846,93720,0,0,1
2847,93726,0,0,1
2848,93728,0,0,1
2849,93752,0,2,0
2850,93762,0,0,1
2851,93765,0,0,1
2852,93767,0,0,1
2853,93823,0,0,1
2854,93826,0,0,1
2855,93831,0,0,1
2856,93863,0,0,1
2857,93866,0,0,1
2858,93912,0,0,1
2859,93943,0,0,1
2860,93974,0,0,1
2861,93982,0,0,1
2862,93989,0,0,1
2863,94026,0,0,1
2864,94032,0,0,1
2865,94051,0,0,1
2866,94135,0,0,1
2867,94211,0,0,1
2868,94259,0,0,1
2869,94266,0,0,1
2870,94309,0,0,1
2871,94322,0,0,1
2872,94368,0,0,1
2873,94468,0,3,0
2874,94470,0,0,1
2875,94475,0,0,1
2876,94573,0,0,1
2877,94596,0,0,1
2878,94605,0,0,1
2879,94615,0,0,1
2880,94616,0,0,1
2881,94621,0,0,1
2882,94706,0,0,1
2883,94733,0,1,0
2884,94734,0,0,1
2885,94875,0,0,1
2886,94878,0,0,1
2887,94893,0,0,1
2888,94929,0,0,1
2889,94939,0,0,1
2890,94975,0,0,1
2891,94977,0,0,1
2892,94993,0,0,1
2893,95020,0,0,1
2894,95043,0,0,1
2895,95069,0,0,1
2896,95154,0,0,1
2897,95189,0,0,1
2898,95202,0,0,1
2899,95212,0,0,1
2900,95226,0,3,0
2901,95316,0,0,1
2902,95331,0,0,1
2903,95340,0,0,1
2904,95365,0,0,1
2905,95376,0,0,1
2906,95467,0,0,1
2907,95485,0,0,1
2908,95499,0,0,1
2909,95551,0,0,1
2910,95578,0,0,1
2911,95588,0,0,1
2912,95592,0,0,1
2913,95603,0,0,1
2914,95674,0,0,1
2915,95708,0,0,1
2916,95710,0,0,1
2917,95741,0,0,1
2918,95752,0,0,1
2919,95764,0,0,1
2920,95802,0,0,1
2921,95822,0,0,1
2922,95950,0,0,1
2923,95958,0,0,1
2924,95998,0,0,1
2925,96004,0,0,1
2926,96053,0,0,1
2927,96097,0,0,1
2928,96098,0,0,1
2929,96123,0,0,1
2930,96131,0,0,1
2931,96214,0,0,1
2932,96237,0,0,1
2933,96256,0,0,1
2934,96282,0,0,1
2935,96286,0,0,1
2936,96302,0,0,1
2937,96304,0,0,1
2938,96316,0,0,1
2939,96328,0,2,0
2940,96349,0,0,1
2941,96401,0,0,1
2942,96410,0,0,1
2943,96434,0,0,1
2944,96436,0,0,1
2945,96474,0,0,1
2946,96498,0,0,1
2947,96532,0,0,1
2948,96573,0,0,1
2949,96590,0,0,1
2950,96616,0,0,1
2951,96647,0,0,1
2952,96653,0,0,1
2953,96753,0,0,1
2954,96769,0,0,1
2955,96772,0,0,1
2956,96773,0,0,1
2957,96802,0,0,1
2958,96845,0,0,1
2959,96853,0,0,1
2960,96889,0,0,1
2961,96901,0,0,1
2962,96906,0,0,1
2963,96985,0,0,1
2964,96989,0,0,1
2965,96995,0,0,1
2966,97186,0,0,1
2967,97211,0,0,1
2968,97220,0,2,0
2969,97221,0,0,1
2970,97231,0,1,0
2971,97245,0,0,1
2972,97292,0,0,1
2973,97311,0,0,1
2974,97358,0,0,1
2975,97366,0,0,1
2976,97373,0,0,1
2977,97390,0,0,1
2978,97442,0,0,1
2979,97468,0,0,1
2980,97484,0,0,1
2981,97498,0,0,1
2982,97500,0,0,1
2983,97537,0,0,1
2984,97568,0,0,1
2985,97581,0,0,1
2986,97592,0,0,1
2987,97594,0,0,1
2988,97614,0,0,1
2989,97618,0,0,1
2990,97621,0,0,1
2991,97628,0,0,1
2992,97638,0,0,1
2993,97648,0,0,1
2994,97670,0,0,1
2995,97705,0,0,1
2996,97712,0,0,1
2997,97759,0,0,1
2998,97832,0,0,1
2999,97872,0,0,1
3000,97891,0,0,1
3001,97902,0,0,1
3002,97909,0,0,1
3003,97912,0,0,1
3004,97918,0,0,1
3005,97952,0,0,1
3006,98019,0,0,1
3007,98037,0,0,1
3008,98048,0,0,1
3009,98082,0,0,1
3010,98145,0,0,1
3011,98152,0,2,0
3012,98220,0,0,1
3013,98268,0,0,1
3014,98324,0,2,0
3015,98333,0,0,1
3016,98355,0,0,1
3017,98388,0,0,1
3018,98466,0,0,1
3019,98490,0,0,1
3020,98528,0,0,1
3021,98543,0,0,1
3022,98564,0,0,1
3023,98571,0,0,1
3024,98619,0,0,1
3025,98652,0,0,1
3026,98705,0,0,1
3027,98719,0,0,1
3028,98756,0,0,1
3029,98768,0,0,1
3030,98811,0,0,1
3031,98822,0,0,1
3032,98853,0,0,1
3033,98863,0,0,1
3034,98864,0,0,1
3035,98873,0,0,1
3036,98913,0,0,1
3037,98915,0,0,1
3038,98930,0,0,1
3039,98940,0,0,1
3040,98954,0,0,1
3041,98962,0,0,1
3042,98985,0,0,1
3043,99009,0,0,1
3044,99053,0,0,1
3045,99056,0,0,1
3046,99064,0,0,1
3047,99075,0,0,1
3048,99078,0,0,1
3049,99121,0,0,1
3050,99142,0,0,1
3051,99166,0,0,1
3052,99172,0,2,0
3053,99200,0,0,1
3054,99226,0,0,1
3055,99262,0,0,1
3056,99276,0,0,1
3057,99366,0,0,1
3058,99373,0,0,1
3059,99382,0,0,1
3060,99412,0,0,1
3061,99446,0,0,1
3062,99448,0,0,1
3063,99450,0,0,1
3064,99494,0,0,1
3065,99512,0,0,1
3066,99561,0,0,1
3067,99575,0,0,1
3068,99620,0,0,1
3069,99651,0,0,1
3070,99680,0,0,1
3071,99707,0,0,1
3072,99714,0,0,1
3073,99719,0,0,1
3074,99838,0,0,1
3075,99843,0,0,1
3076,99867,0,0,1
3077,99894,0,0,1
3078,99964,0,0,1
3079,100005,0,0,1
3080,100089,0,0,1
3081,100096,0,0,1
3082,100115,0,2,0
3083,100128,0,0,1
3084,100209,0,0,1
3085,100214,0,0,1
3086,100328,0,0,1
3087,100431,0,0,1
3088,100443,0,0,1
3089,100444,0,0,1
3090,100448,0,1,0
3091,100504,0,0,1
3092,100506,0,0,1
3093,100519,0,0,1
3094,100588,0,0,1
3095,100592,0,0,1
3096,100625,0,0,1
3097,100645,0,0,1
3098,100663,0,2,0
3099,100672,0,0,1
3100,100818,0,2,0
3101,100830,0,0,1
3102,100908,0,0,1
3103,100920,0,0,1
3104,100924,0,0,1
3105,100947,0,0,1
3106,100958,0,0,1
3107,101018,0,0,1
3108,101049,0,0,1
3109,101050,0,0,1
3110,101052,0,0,1
3111,101062,0,0,1
3112,101133,0,0,1
3113,101153,0,0,1
3114,101174,0,0,1
3115,101220,0,0,1
3116,101237,0,0,1
3117,101249,0,0,1
3118,101299,0,0,1
3119,101339,0,0,1
3120,101375,0,3,0
3121,101394,0,0,1
3122,101421,0,0,1
3123,101427,0,0,1
3124,101458,0,0,1
3125,101460,0,0,1
3126,101463,0,0,1
3127,101493,0,0,1
3128,101521,0,1,0
3129,101524,0,0,1
3130,101529,0,0,1
3131,101576,0,1,0
3132,101603,0,0,1
3133,101649,0,0,1
3134,101650,0,0,1
3135,101661,0,0,1
3136,101662,0,0,1
3137,101691,0,0,1
3138,101870,0,0,1
3139,101877,0,0,1
3140,101902,0,0,1
3141,101914,0,0,1
3142,101955,0,0,1
3143,101956,0,0,1
3144,101997,0,0,1
3145,102004,0,0,1
3146,102035,0,0,1
3147,102044,0,0,1
3148,102091,0,0,1
3149,102094,0,2,0
3150,102111,0,0,1
3151,102171,0,0,1
3152,102189,0,0,1
3153,102223,0,0,1
3154,102238,0,0,1
3155,102298,0,0,1
3156,102392,0,2,0
3157,102412,0,0,1
3158,102432,0,0,1
3159,102441,0,2,0
3160,102477,0,0,1
3161,102518,0,0,1
3162,102547,0,0,1
3163,102590,0,0,1
3164,102596,0,0,1
3165,102613,0,0,1
3166,102646,0,0,1
3167,102752,0,0,1
3168,102753,0,2,0
3169,102916,0,0,1
3170,102946,0,0,1
3171,102953,0,0,1
3172,102996,0,0,1
3173,103128,0,0,1
3174,103129,0,0,1
3175,103216,0,0,1
3176,103257,0,0,1
3177,103285,0,0,1
3178,103338,0,0,1
3179,103384,0,3,0
3180,103395,0,0,1
3181,103421,0,0,1
3182,103428,0,0,1
3183,103501,0,0,1
3184,103502,0,0,1
3185,103583,0,0,1
3186,103585,0,0,1
3187,103613,0,0,1
3188,103640,0,0,1
3189,103659,0,0,1
3190,103677,0,0,1
3191,103679,0,0,1
3192,103688,0,0,1
3193,103705,0,0,1
3194,103713,0,0,1
3195,103739,0,0,1
3196,103791,0,0,1
3197,103819,0,0,1
3198,103859,0,0,1
3199,103878,0,0,1
3200,103880,0,0,1
3201,103913,0,0,1
3202,103947,0,0,1
3203,104018,0,0,1
3204,104039,0,0,1
3205,104089,0,2,0
3206,104153,0,3,0
3207,104197,0,0,1
3208,104321,0,0,1
3209,104400,0,0,1
3210,104437,0,0,1
3211,104479,0,0,1
3212,104503,0,0,1
3213,104507,0,0,1
3214,104585,0,0,1
3215,104601,0,0,1
3216,104630,0,0,1
3217,104664,0,0,1
3218,104705,0,3,0
3219,104719,0,0,1
3220,104730,0,3,0
3221,104737,0,2,0
3222,104740,0,0,1
3223,104759,0,0,1
3224,104794,0,0,1
3225,104804,0,0,1
3226,104850,0,0,1
3227,104891,0,3,0
3228,104902,0,0,1
3229,104920,0,0,1
3230,104953,0,0,1
3231,104962,0,0,1
3232,104967,0,3,0
3233,104988,0,0,1
3234,104994,0,0,1
3235,105000,0,0,1
3236,105004,0,0,1
3237,105073,0,0,1
3238,105150,0,0,1
3239,105151,0,0,1
3240,105241,0,0,1
3241,105318,0,0,1
3242,105393,0,0,1
3243,105484,0,0,1
3244,105525,0,0,1
3245,105572,0,0,1
3246,105577,0,0,1
3247,105581,0,0,1
3248,105621,0,0,1
3249,105632,0,0,1
3250,105642,0,0,1
3251,105660,0,0,1
