,Hearbeat ID,Ground Truth,Predicted Category,Comparison Result
0,6,0,0,1
1,7,0,0,1
2,9,0,0,1
3,12,0,0,1
4,14,0,0,1
5,21,0,0,1
6,23,0,0,1
7,28,0,0,1
8,31,0,0,1
9,32,0,0,1
10,42,0,0,1
11,47,0,0,1
12,49,0,0,1
13,52,0,0,1
14,55,0,0,1
15,60,0,0,1
16,62,0,0,1
17,65,0,0,1
18,66,0,0,1
19,68,0,0,1
20,78,0,0,1
21,82,0,0,1
22,83,0,0,1
23,84,0,0,1
24,91,0,0,1
25,96,0,0,1
26,97,0,0,1
27,101,0,3,0
28,103,0,2,0
29,108,0,0,1
30,116,0,0,1
31,120,0,0,1
32,122,0,0,1
33,123,0,0,1
34,129,0,1,0
35,133,0,0,1
36,135,0,1,0
37,146,0,0,1
38,147,0,0,1
39,152,0,0,1
40,153,0,0,1
41,154,0,0,1
42,158,0,0,1
43,159,0,0,1
44,166,0,0,1
45,168,0,0,1
46,169,0,0,1
47,173,0,2,0
48,187,0,0,1
49,193,0,0,1
50,197,0,0,1
51,203,0,0,1
52,204,0,0,1
53,214,0,0,1
54,225,0,0,1
55,229,0,0,1
56,234,0,0,1
57,235,0,1,0
58,237,0,0,1
59,238,0,0,1
60,243,0,0,1
61,254,0,0,1
62,255,0,0,1
63,258,0,0,1
64,261,0,0,1
65,263,0,0,1
66,266,0,1,0
67,267,0,0,1
68,268,0,0,1
69,275,0,0,1
70,277,0,0,1
71,287,0,0,1
72,294,0,1,0
73,298,0,0,1
74,307,0,0,1
75,319,0,0,1
76,320,0,0,1
77,321,0,0,1
78,325,0,0,1
79,327,0,0,1
80,332,0,0,1
81,333,0,0,1
82,334,0,0,1
83,336,0,1,0
84,341,0,0,1
85,342,0,1,0
86,350,0,0,1
87,356,0,0,1
88,357,0,0,1
89,358,0,0,1
90,359,0,0,1
91,361,0,0,1
92,366,0,0,1
93,369,0,0,1
94,372,0,0,1
95,374,0,0,1
96,376,0,0,1
97,381,0,1,0
98,382,0,0,1
99,392,0,0,1
100,396,0,0,1
101,397,0,0,1
102,399,0,0,1
103,402,0,0,1
104,410,0,0,1
105,413,0,1,0
106,414,0,0,1
107,415,0,0,1
108,416,0,0,1
109,422,0,0,1
110,423,0,0,1
111,439,0,0,1
112,440,0,0,1
113,443,0,0,1
114,445,0,0,1
115,447,0,0,1
116,450,0,0,1
117,453,0,0,1
118,455,0,0,1
119,458,0,0,1
120,463,0,0,1
121,464,0,0,1
122,470,0,0,1
123,472,0,0,1
124,481,0,1,0
125,483,0,1,0
126,489,0,0,1
127,490,0,0,1
128,492,0,0,1
129,494,0,0,1
130,495,0,0,1
131,498,0,0,1
132,500,0,0,1
133,501,0,0,1
134,519,0,0,1
135,522,0,0,1
136,535,0,0,1
137,536,0,0,1
138,546,0,0,1
139,549,0,0,1
140,550,0,0,1
141,552,0,0,1
142,554,0,0,1
143,558,0,0,1
144,561,0,0,1
145,562,0,0,1
146,564,0,0,1
147,571,0,0,1
148,576,0,1,0
149,583,0,0,1
150,586,0,0,1
151,589,0,0,1
152,597,0,0,1
153,602,0,0,1
154,608,0,1,0
155,609,0,0,1
156,610,0,0,1
157,615,0,0,1
158,618,0,0,1
159,619,0,0,1
160,621,0,0,1
161,624,0,1,0
162,625,0,0,1
163,629,0,0,1
164,632,0,0,1
165,637,0,0,1
166,639,0,0,1
167,640,0,0,1
168,641,0,0,1
169,643,0,0,1
170,645,0,0,1
171,646,0,0,1
172,649,0,0,1
173,658,0,0,1
174,659,0,0,1
175,667,0,0,1
176,668,0,0,1
177,669,0,0,1
178,671,0,0,1
179,672,0,0,1
180,673,0,0,1
181,684,0,0,1
182,691,0,0,1
183,693,0,0,1
184,700,0,0,1
185,703,0,0,1
186,704,0,0,1
187,706,0,0,1
188,711,0,0,1
189,712,0,0,1
190,713,0,0,1
191,715,0,0,1
192,716,0,0,1
193,720,0,0,1
194,725,0,0,1
195,731,0,0,1
196,743,0,0,1
197,749,0,0,1
198,752,0,2,0
199,753,0,0,1
200,756,0,0,1
201,757,0,0,1
202,760,0,0,1
203,764,0,0,1
204,767,0,0,1
205,768,0,0,1
206,771,0,0,1
207,773,0,0,1
208,780,0,0,1
209,785,0,0,1
210,790,0,0,1
211,791,0,1,0
212,794,0,0,1
213,798,0,0,1
214,799,0,0,1
215,802,0,0,1
216,813,0,0,1
217,815,0,1,0
218,817,0,0,1
219,821,0,0,1
220,822,0,0,1
221,828,0,0,1
222,829,0,1,0
223,831,0,0,1
224,832,0,0,1
225,850,0,1,0
226,851,0,0,1
227,856,0,0,1
228,860,0,0,1
229,863,0,0,1
230,866,0,0,1
231,870,0,0,1
232,872,0,0,1
233,882,0,0,1
234,883,0,0,1
235,889,0,0,1
236,893,0,0,1
237,900,0,0,1
238,901,0,0,1
239,905,0,0,1
240,907,0,0,1
241,911,0,0,1
242,914,0,0,1
243,919,0,0,1
244,920,0,0,1
245,926,0,0,1
246,928,0,0,1
247,935,0,0,1
248,936,0,0,1
249,939,0,0,1
250,945,0,0,1
251,949,0,0,1
252,952,0,1,0
253,953,0,0,1
254,964,0,0,1
255,965,0,0,1
256,972,0,0,1
257,979,0,0,1
258,998,0,1,0
259,999,0,0,1
260,1017,0,0,1
261,1022,0,0,1
262,1025,0,0,1
263,1029,0,0,1
264,1033,0,0,1
265,1034,0,0,1
266,1044,0,0,1
267,1045,0,0,1
268,1046,0,0,1
269,1056,0,1,0
270,1061,0,0,1
271,1063,0,0,1
272,1064,0,0,1
273,1067,0,0,1
274,1070,0,0,1
275,1074,0,0,1
276,1078,0,0,1
277,1081,0,0,1
278,1083,0,0,1
279,1084,0,0,1
280,1087,0,0,1
281,1089,0,0,1
282,1090,0,0,1
283,1091,0,0,1
284,1100,0,1,0
285,1101,0,0,1
286,1104,0,0,1
287,1111,0,2,0
288,1113,0,0,1
289,1116,0,0,1
290,1121,0,1,0
291,1122,0,1,0
292,1124,0,0,1
293,1128,0,0,1
294,1129,0,0,1
295,1131,0,0,1
296,1135,0,0,1
297,1138,0,0,1
298,1144,0,3,0
299,1145,0,0,1
300,1147,0,0,1
301,1154,0,0,1
302,1158,0,0,1
303,1160,0,0,1
304,1161,0,0,1
305,1165,0,0,1
306,1168,0,0,1
307,1174,0,0,1
308,1175,0,0,1
309,1180,0,0,1
310,1182,0,0,1
311,1189,0,0,1
312,1193,0,0,1
313,1195,0,0,1
314,1196,0,0,1
315,1198,0,0,1
316,1202,0,0,1
317,1203,0,0,1
318,1212,0,0,1
319,1218,0,0,1
320,1220,0,0,1
321,1225,0,0,1
322,1226,0,0,1
323,1231,0,0,1
324,1232,0,0,1
325,1233,0,0,1
326,1234,0,0,1
327,1235,0,0,1
328,1244,0,0,1
329,1248,0,0,1
330,1249,0,0,1
331,1252,0,0,1
332,1256,0,0,1
333,1257,0,0,1
334,1262,0,0,1
335,1263,0,1,0
336,1273,0,0,1
337,1275,0,0,1
338,1276,0,0,1
339,1281,0,0,1
340,1282,0,0,1
341,1286,0,0,1
342,1289,0,0,1
343,1292,0,0,1
344,1295,0,0,1
345,1296,0,0,1
346,1297,0,0,1
347,1298,0,0,1
348,1299,0,0,1
349,1301,0,0,1
350,1302,0,0,1
351,1306,0,0,1
352,1314,0,0,1
353,1321,0,0,1
354,1336,0,0,1
355,1337,0,0,1
356,1344,0,0,1
357,1345,0,0,1
358,1347,0,0,1
359,1351,0,0,1
360,1353,0,0,1
361,1355,0,0,1
362,1356,0,0,1
363,1357,0,0,1
364,1365,0,0,1
365,1367,0,0,1
366,1369,0,0,1
367,1378,0,0,1
368,1380,0,0,1
369,1388,0,0,1
370,1398,0,1,0
371,1404,0,0,1
372,1415,0,0,1
373,1420,0,0,1
374,1425,0,0,1
375,1427,0,0,1
376,1429,0,0,1
377,1431,0,0,1
378,1433,0,0,1
379,1436,0,0,1
380,1437,0,0,1
381,1439,0,0,1
382,1443,0,1,0
383,1450,0,0,1
384,1454,0,0,1
385,1461,0,0,1
386,1462,0,0,1
387,1463,0,0,1
388,1471,0,0,1
389,1477,0,0,1
390,1478,0,1,0
391,1481,0,0,1
392,1487,0,0,1
393,1489,0,0,1
394,1490,0,0,1
395,1491,0,0,1
396,1499,0,0,1
397,1501,0,0,1
398,1504,0,0,1
399,1506,0,0,1
400,1507,0,0,1
401,1509,0,1,0
402,1514,0,0,1
403,1515,0,1,0
404,1517,0,0,1
405,1518,0,0,1
406,1520,0,0,1
407,1521,0,0,1
408,1522,0,0,1
409,1525,0,0,1
410,1526,0,0,1
411,1528,0,0,1
412,1529,0,0,1
413,1536,0,0,1
414,1538,0,0,1
415,1542,0,0,1
416,1547,0,0,1
417,1552,0,0,1
418,1555,0,0,1
419,1556,0,0,1
420,1558,0,0,1
421,1559,0,0,1
422,1571,0,0,1
423,1574,0,0,1
424,1578,0,0,1
425,1581,0,0,1
426,1583,0,0,1
427,1584,0,0,1
428,1585,0,0,1
429,1588,0,0,1
430,1589,0,0,1
431,1593,0,0,1
432,1595,0,0,1
433,1598,0,0,1
434,1601,0,1,0
435,1608,0,0,1
436,1617,0,0,1
437,1618,0,0,1
438,1625,0,0,1
439,1628,0,0,1
440,1642,0,1,0
441,1645,0,0,1
442,1647,0,0,1
443,1648,0,0,1
444,1651,0,0,1
445,1658,0,0,1
446,1660,0,0,1
447,1665,0,0,1
448,1671,0,0,1
449,1674,0,0,1
450,1675,0,0,1
451,1677,0,0,1
452,1689,0,0,1
453,1691,0,0,1
454,1694,0,0,1
455,1698,0,0,1
456,1702,0,0,1
457,1704,0,0,1
458,1706,0,0,1
459,1708,0,0,1
460,1714,0,0,1
461,1715,0,0,1
462,1717,0,0,1
463,1718,0,0,1
464,1721,0,0,1
465,1724,0,0,1
466,1736,0,0,1
467,1738,0,0,1
468,1740,0,0,1
469,1741,0,0,1
470,1747,0,0,1
471,1751,0,0,1
472,1753,0,0,1
473,1758,0,0,1
474,1760,0,0,1
475,1762,0,0,1
476,1773,0,0,1
477,1774,0,0,1
478,1779,0,0,1
479,1785,0,0,1
480,1788,0,0,1
481,1789,0,0,1
482,1795,0,0,1
483,1797,0,0,1
484,1798,0,0,1
485,1802,0,0,1
486,1803,0,0,1
487,1805,0,0,1
488,1818,0,0,1
489,1821,0,0,1
490,1824,0,0,1
491,1825,0,0,1
492,1826,0,0,1
493,1831,0,0,1
494,1832,0,2,0
495,1833,0,0,1
496,1834,0,0,1
497,1837,0,0,1
498,1838,0,0,1
499,1840,0,0,1
500,1842,0,0,1
501,1847,0,0,1
502,1855,0,0,1
503,1859,0,0,1
504,1860,0,0,1
505,1862,0,0,1
506,1871,0,0,1
507,1872,0,0,1
508,1875,0,1,0
509,1876,0,0,1
510,1878,0,0,1
511,1881,0,0,1
512,1884,0,0,1
513,1885,0,0,1
514,1889,0,0,1
515,1890,0,0,1
516,1892,0,0,1
517,1902,0,0,1
518,1903,0,0,1
519,1905,0,0,1
520,1906,0,0,1
521,1907,0,0,1
522,1911,0,0,1
523,1912,0,0,1
524,1925,0,0,1
525,1932,0,0,1
526,1934,0,0,1
527,1939,0,0,1
528,1943,0,0,1
529,1944,0,0,1
530,1947,0,0,1
531,1950,0,0,1
532,1952,0,0,1
533,1958,0,3,0
534,1959,0,0,1
535,1960,0,0,1
536,1965,0,0,1
537,1967,0,0,1
538,1971,0,0,1
539,1976,0,0,1
540,1978,0,0,1
541,1981,0,0,1
542,1987,0,0,1
543,1993,0,0,1
544,1996,0,0,1
545,2001,0,1,0
546,2008,0,0,1
547,2015,0,0,1
548,2024,0,0,1
549,2025,0,0,1
550,2027,0,0,1
551,2028,0,0,1
552,2036,0,0,1
553,2041,0,0,1
554,2042,0,0,1
555,2045,0,0,1
556,2046,0,0,1
557,2048,0,0,1
558,2052,0,0,1
559,2056,0,0,1
560,2060,0,0,1
561,2063,0,1,0
562,2067,0,0,1
563,2072,0,0,1
564,2074,0,0,1
565,2075,0,0,1
566,2076,0,0,1
567,2078,0,0,1
568,2082,0,0,1
569,2088,0,0,1
570,2089,0,0,1
571,2091,0,0,1
572,2093,0,0,1
573,2096,0,0,1
574,2097,0,0,1
575,2102,0,0,1
576,2106,0,0,1
577,2108,0,0,1
578,2109,0,0,1
579,2124,0,0,1
580,2125,0,0,1
581,2130,0,0,1
582,2132,0,0,1
583,2133,0,0,1
584,2139,0,0,1
585,2140,0,0,1
586,2143,0,0,1
587,2150,0,1,0
588,2152,0,0,1
589,2158,0,0,1
590,2166,0,0,1
591,2172,0,0,1
592,2173,0,0,1
593,2178,0,0,1
594,2180,0,0,1
595,2182,0,0,1
596,2184,0,0,1
597,2185,0,0,1
598,2187,0,1,0
599,2188,0,0,1
600,2189,0,0,1
601,2192,0,0,1
602,2193,0,0,1
603,2196,0,0,1
604,2197,0,0,1
605,2199,0,1,0
606,2200,0,0,1
607,2207,0,0,1
608,2214,0,0,1
609,2218,0,0,1
610,2219,0,0,1
611,2220,0,0,1
612,2224,0,0,1
613,2228,0,0,1
614,2238,0,0,1
615,2239,0,0,1
616,2242,0,0,1
617,2243,0,0,1
618,2244,0,0,1
619,2247,0,0,1
620,2252,0,0,1
621,2254,0,0,1
622,2255,0,0,1
623,2257,0,0,1
624,2261,0,0,1
625,2264,0,0,1
626,2269,0,0,1
627,2274,0,0,1
628,2277,0,0,1
629,2287,0,0,1
630,2289,0,1,0
631,2292,0,0,1
632,2295,0,0,1
633,2309,0,0,1
634,2310,0,0,1
635,2311,0,0,1
636,2312,0,0,1
637,2314,0,0,1
638,2317,0,0,1
639,2321,0,0,1
640,2324,0,0,1
641,2328,0,0,1
642,2332,0,0,1
643,2335,0,0,1
644,2336,0,0,1
645,2337,0,0,1
646,2341,0,0,1
647,2350,0,0,1
648,2351,0,0,1
649,2353,0,0,1
650,2355,0,0,1
651,2362,0,0,1
652,2364,0,0,1
653,2368,0,0,1
654,2369,0,0,1
655,2375,0,3,0
656,2376,0,0,1
657,2380,0,0,1
658,2383,0,0,1
659,2389,0,0,1
660,2396,0,0,1
661,2400,0,0,1
662,2404,0,0,1
663,2413,0,0,1
664,2416,0,0,1
665,2431,0,0,1
666,2433,0,0,1
667,2438,0,0,1
668,2441,0,0,1
669,2443,0,0,1
670,2448,0,0,1
671,2450,0,0,1
672,2464,0,1,0
673,2472,0,0,1
674,2479,0,1,0
675,2480,0,0,1
676,2481,0,0,1
677,2491,0,0,1
678,2496,0,0,1
679,2506,0,0,1
680,2513,0,0,1
681,2514,0,0,1
682,2520,0,0,1
683,2521,0,0,1
684,2532,0,0,1
685,2533,0,0,1
686,2536,0,0,1
687,2540,0,0,1
688,2549,0,0,1
689,2552,0,0,1
690,2556,0,0,1
691,2560,0,0,1
692,2562,0,0,1
693,2564,0,0,1
694,2565,0,0,1
695,2569,0,0,1
696,2572,0,0,1
697,2575,0,0,1
698,2576,0,1,0
699,2582,0,0,1
700,2587,0,0,1
701,2588,0,0,1
702,2589,0,0,1
703,2594,0,0,1
704,2610,0,0,1
705,2614,0,0,1
706,2625,0,0,1
707,2628,0,0,1
708,2630,0,0,1
709,2639,0,0,1
710,2642,0,1,0
711,2645,0,0,1
712,2646,0,0,1
713,2651,0,0,1
714,2655,0,0,1
715,2657,0,0,1
716,2658,0,0,1
717,2667,0,0,1
718,2674,0,0,1
719,2675,0,0,1
720,2679,0,0,1
721,2693,0,0,1
722,2694,0,0,1
723,2699,0,0,1
724,2700,0,1,0
725,2701,0,0,1
726,2703,0,0,1
727,2706,0,0,1
728,2707,0,0,1
729,2708,0,2,0
730,2709,0,0,1
731,2710,0,0,1
732,2711,0,0,1
733,2715,0,0,1
734,2716,0,0,1
735,2730,0,0,1
736,2733,0,0,1
737,2739,0,0,1
738,2741,0,0,1
739,2742,0,0,1
740,2744,0,0,1
741,2749,0,0,1
742,2750,0,0,1
743,2751,0,1,0
744,2753,0,0,1
745,2754,0,0,1
746,2756,0,0,1
747,2762,0,1,0
748,2764,0,0,1
749,2778,0,0,1
750,2791,0,0,1
751,2793,0,0,1
752,2796,0,0,1
753,2798,0,1,0
754,2801,0,0,1
755,2803,0,0,1
756,2809,0,0,1
757,2811,0,3,0
758,2817,0,0,1
759,2825,0,0,1
760,2831,0,0,1
761,2832,0,0,1
762,2834,0,0,1
763,2835,0,0,1
764,2844,0,0,1
765,2848,0,2,0
766,2854,0,0,1
767,2859,0,0,1
768,2860,0,0,1
769,2864,0,0,1
770,2865,0,0,1
771,2866,0,0,1
772,2867,0,0,1
773,2869,0,0,1
774,2871,0,0,1
775,2875,0,0,1
776,2876,0,0,1
777,2885,0,0,1
778,2889,0,0,1
779,2895,0,0,1
780,2903,0,0,1
781,2908,0,0,1
782,2913,0,0,1
783,2916,0,0,1
784,2924,0,0,1
785,2925,0,0,1
786,2927,0,0,1
787,2929,0,0,1
788,2935,0,0,1
789,2949,0,0,1
790,2953,0,0,1
791,2955,0,0,1
792,2957,0,0,1
793,2960,0,0,1
794,2965,0,0,1
795,2979,0,0,1
796,2983,0,0,1
797,2988,0,0,1
798,2991,0,0,1
799,2997,0,0,1
800,2999,0,0,1
801,3006,0,0,1
802,3007,0,0,1
803,3010,0,0,1
804,3013,0,0,1
805,3014,0,1,0
806,3016,0,0,1
807,3017,0,0,1
808,3022,0,0,1
809,3023,0,0,1
810,3025,0,1,0
811,3026,0,0,1
812,3035,0,0,1
813,3037,0,1,0
814,3039,0,0,1
815,3042,0,0,1
816,3044,0,3,0
817,3052,0,0,1
818,3053,0,0,1
819,3055,0,0,1
820,3057,0,1,0
821,3063,0,0,1
822,3065,0,1,0
823,3066,0,0,1
824,3068,0,0,1
825,3071,0,1,0
826,3072,0,0,1
827,3074,0,0,1
828,3076,0,0,1
829,3079,0,0,1
830,3089,0,0,1
831,3092,0,0,1
832,3093,0,0,1
833,3103,0,0,1
834,3114,0,0,1
835,3118,0,0,1
836,3119,0,0,1
837,3124,0,0,1
838,3127,0,0,1
839,3128,0,0,1
840,3130,0,0,1
841,3134,0,0,1
842,3142,0,0,1
843,3154,0,0,1
844,3165,0,0,1
845,3171,0,0,1
846,3172,0,0,1
847,3174,0,0,1
848,3179,0,0,1
849,3186,0,0,1
850,3190,0,0,1
851,3195,0,0,1
852,3202,0,0,1
853,3216,0,0,1
854,3226,0,0,1
855,3230,0,0,1
856,3232,0,0,1
857,3235,0,0,1
858,3237,0,0,1
859,3238,0,0,1
860,3239,0,0,1
861,3241,0,0,1
862,3252,0,0,1
863,3254,0,0,1
864,3257,0,0,1
865,3258,0,0,1
866,3260,0,0,1
867,3261,0,0,1
868,3262,0,0,1
869,3263,0,0,1
870,3266,0,0,1
871,3268,0,0,1
872,3273,0,0,1
873,3276,0,0,1
874,3277,0,0,1
875,3282,0,0,1
876,3284,0,0,1
877,3286,0,0,1
878,3297,0,0,1
879,3302,0,0,1
880,3307,0,0,1
881,3312,0,0,1
882,3314,0,0,1
883,3322,0,0,1
884,3323,0,0,1
885,3326,0,0,1
886,3328,0,0,1
887,3329,0,0,1
888,3330,0,0,1
889,3333,0,0,1
890,3336,0,0,1
891,3337,0,0,1
892,3343,0,0,1
893,3347,0,0,1
894,3358,0,0,1
895,3360,0,0,1
896,3361,0,0,1
897,3364,0,0,1
898,3365,0,0,1
899,3371,0,0,1
900,3379,0,0,1
901,3382,0,0,1
902,3386,0,0,1
903,3391,0,0,1
904,3407,0,0,1
905,3410,0,3,0
906,3411,0,0,1
907,3413,0,0,1
908,3415,0,0,1
909,3417,0,0,1
910,3427,0,1,0
911,3428,0,0,1
912,3430,0,0,1
913,3433,0,0,1
914,3437,0,0,1
915,3438,0,0,1
916,3441,0,0,1
917,3447,0,0,1
918,3448,0,0,1
919,3449,0,0,1
920,3452,0,0,1
921,3461,0,0,1
922,3467,0,0,1
923,3469,0,0,1
924,3471,0,0,1
925,3473,0,0,1
926,3475,0,0,1
927,3476,0,0,1
928,3479,0,0,1
929,3485,0,0,1
930,3497,0,0,1
931,3498,0,0,1
932,3499,0,0,1
933,3500,0,0,1
934,3502,0,0,1
935,3507,0,0,1
936,3510,0,0,1
937,3519,0,0,1
938,3520,0,0,1
939,3521,0,0,1
940,3522,0,0,1
941,3526,0,0,1
942,3528,0,0,1
943,3529,0,0,1
944,3531,0,0,1
945,3533,0,1,0
946,3537,0,0,1
947,3546,0,0,1
948,3553,0,0,1
949,3554,0,0,1
950,3558,0,0,1
951,3561,0,0,1
952,3566,0,0,1
953,3567,0,0,1
954,3577,0,0,1
955,3578,0,0,1
956,3591,0,0,1
957,3593,0,0,1
958,3596,0,0,1
959,3597,0,0,1
960,3602,0,0,1
961,3610,0,0,1
962,3612,0,0,1
963,3620,0,0,1
964,3621,0,0,1
965,3629,0,0,1
966,3633,0,0,1
967,3634,0,0,1
968,3639,0,0,1
969,3641,0,0,1
970,3644,0,0,1
971,3645,0,0,1
972,3648,0,0,1
973,3649,0,0,1
974,3654,0,2,0
975,3658,0,0,1
976,3661,0,0,1
977,3662,0,0,1
978,3663,0,0,1
979,3664,0,2,0
980,3666,0,0,1
981,3670,0,0,1
982,3671,0,0,1
983,3673,0,0,1
984,3674,0,0,1
985,3677,0,0,1
986,3679,0,0,1
987,3682,0,0,1
988,3688,0,0,1
989,3689,0,0,1
990,3694,0,0,1
991,3698,0,0,1
992,3704,0,0,1
993,3708,0,0,1
994,3712,0,0,1
995,3713,0,0,1
996,3715,0,0,1
997,3716,0,0,1
998,3717,0,0,1
999,3731,0,0,1
1000,3733,0,0,1
1001,3735,0,0,1
1002,3743,0,0,1
1003,3746,0,0,1
1004,3751,0,0,1
1005,3752,0,0,1
1006,3753,0,0,1
1007,3759,0,0,1
1008,3762,0,0,1
1009,3765,0,0,1
1010,3769,0,0,1
1011,3770,0,0,1
1012,3772,0,0,1
1013,3773,0,0,1
1014,3779,0,0,1
1015,3784,0,0,1
1016,3789,0,0,1
1017,3792,0,0,1
1018,3795,0,0,1
1019,3803,0,0,1
1020,3807,0,0,1
1021,3810,0,0,1
1022,3811,0,0,1
1023,3822,0,0,1
1024,3823,0,0,1
1025,3824,0,0,1
1026,3828,0,0,1
1027,3837,0,0,1
1028,3840,0,0,1
1029,3844,0,0,1
1030,3847,0,0,1
1031,3849,0,0,1
1032,3851,0,0,1
1033,3859,0,0,1
1034,3870,0,0,1
1035,3874,0,1,0
1036,3878,0,1,0
1037,3880,0,0,1
1038,3882,0,0,1
1039,3886,0,0,1
1040,3887,0,0,1
1041,3891,0,1,0
1042,3896,0,0,1
1043,3900,0,0,1
1044,3901,0,0,1
1045,3904,0,0,1
1046,3906,0,0,1
1047,3907,0,0,1
1048,3909,0,0,1
1049,3913,0,0,1
1050,3918,0,0,1
1051,3926,0,0,1
1052,3932,0,0,1
1053,3933,0,1,0
1054,3940,0,0,1
1055,3942,0,0,1
1056,3943,0,0,1
1057,3944,0,0,1
1058,3946,0,0,1
1059,3947,0,0,1
1060,3950,0,0,1
1061,3954,0,0,1
1062,3959,0,0,1
1063,3962,0,0,1
1064,3966,0,0,1
1065,3968,0,2,0
1066,3970,0,0,1
1067,3976,0,0,1
1068,3978,0,2,0
1069,3979,0,0,1
1070,3981,0,0,1
1071,3982,0,0,1
1072,3993,0,0,1
1073,3997,0,0,1
1074,4001,0,0,1
1075,4007,0,0,1
1076,4020,0,0,1
1077,4022,0,0,1
1078,4024,0,0,1
1079,4030,0,0,1
1080,4032,0,0,1
1081,4035,0,0,1
1082,4036,0,1,0
1083,4042,0,0,1
1084,4047,0,0,1
1085,4048,0,0,1
1086,4053,0,0,1
1087,4056,0,0,1
1088,4059,0,0,1
1089,4062,0,0,1
1090,4073,0,0,1
1091,4076,0,0,1
1092,4080,0,0,1
1093,4081,0,0,1
1094,4085,0,0,1
1095,4090,0,0,1
1096,4091,0,0,1
1097,4094,0,0,1
1098,4105,0,0,1
1099,4109,0,0,1
1100,4110,0,0,1
1101,4114,0,0,1
1102,4116,0,0,1
1103,4126,0,0,1
1104,4129,0,0,1
1105,4135,0,1,0
1106,4140,0,0,1
1107,4141,0,0,1
1108,4143,0,0,1
1109,4144,0,0,1
1110,4146,0,0,1
1111,4149,0,0,1
1112,4151,0,0,1
1113,4154,0,0,1
1114,4158,0,0,1
1115,4159,0,1,0
1116,4168,0,0,1
1117,4171,0,0,1
1118,4176,0,0,1
1119,4180,0,0,1
1120,4188,0,0,1
1121,4195,0,0,1
1122,4197,0,0,1
1123,4202,0,0,1
1124,4213,0,0,1
1125,4215,0,0,1
1126,4221,0,0,1
1127,4223,0,0,1
1128,4224,0,0,1
1129,4225,0,0,1
1130,4227,0,0,1
1131,4233,0,0,1
1132,4234,0,0,1
1133,4242,0,0,1
1134,4244,0,0,1
1135,4248,0,0,1
1136,4256,0,0,1
1137,4258,0,0,1
1138,4259,0,0,1
1139,4262,0,0,1
1140,4264,0,1,0
1141,4267,0,0,1
1142,4268,0,0,1
1143,4271,0,0,1
1144,4274,0,0,1
1145,4275,0,0,1
1146,4278,0,0,1
1147,4282,0,1,0
1148,4288,0,0,1
1149,4290,0,0,1
1150,4292,0,0,1
1151,4293,0,0,1
1152,4294,0,0,1
1153,4295,0,0,1
1154,4298,0,0,1
1155,4317,0,0,1
1156,4328,0,0,1
1157,4329,0,0,1
1158,4330,0,0,1
1159,4331,0,0,1
1160,4332,0,0,1
1161,4337,0,0,1
1162,4339,0,0,1
1163,4343,0,0,1
1164,4346,0,0,1
1165,4349,0,2,0
1166,4351,0,0,1
1167,4354,0,0,1
1168,4357,0,0,1
1169,4367,0,0,1
1170,4369,0,0,1
1171,4370,0,1,0
1172,4372,0,0,1
1173,4376,0,0,1
1174,4379,0,0,1
1175,4380,0,0,1
1176,4381,0,2,0
1177,4389,0,0,1
1178,4391,0,0,1
1179,4395,0,0,1
1180,4403,0,0,1
1181,4406,0,0,1
1182,4408,0,0,1
1183,4409,0,0,1
1184,4411,0,0,1
1185,4422,0,0,1
1186,4428,0,0,1
1187,4429,0,0,1
1188,4431,0,0,1
1189,4435,0,0,1
1190,4439,0,0,1
1191,4443,0,0,1
1192,4449,0,0,1
1193,4452,0,0,1
1194,4457,0,1,0
1195,4459,0,0,1
1196,4460,0,0,1
1197,4461,0,0,1
1198,4462,0,0,1
1199,4463,0,0,1
1200,4465,0,0,1
1201,4466,0,0,1
1202,4467,0,0,1
1203,4470,0,0,1
1204,4471,0,0,1
1205,4477,0,0,1
1206,4479,0,0,1
1207,4484,0,0,1
1208,4485,0,0,1
1209,4491,0,0,1
1210,4494,0,0,1
1211,4499,0,0,1
1212,4505,0,0,1
1213,4507,0,1,0
1214,4522,0,0,1
1215,4527,0,0,1
1216,4530,0,0,1
1217,4531,0,0,1
1218,4533,0,0,1
1219,4538,0,0,1
1220,4543,0,0,1
1221,4544,0,0,1
1222,4554,0,0,1
1223,4557,0,2,0
1224,4558,0,0,1
1225,4566,0,1,0
1226,4568,0,0,1
1227,4573,0,0,1
1228,4574,0,0,1
1229,4576,0,0,1
1230,4577,0,0,1
1231,4585,0,0,1
1232,4590,0,0,1
1233,4594,0,0,1
1234,4595,0,0,1
1235,4597,0,0,1
1236,4604,0,0,1
1237,4606,0,0,1
1238,4609,0,0,1
1239,4610,0,0,1
1240,4612,0,0,1
1241,4616,0,0,1
1242,4620,0,0,1
1243,4622,0,0,1
1244,4624,0,0,1
1245,4630,0,0,1
1246,4631,0,0,1
1247,4635,0,0,1
1248,4636,0,0,1
1249,4638,0,0,1
1250,4639,0,1,0
1251,4641,0,0,1
1252,4643,0,0,1
1253,4648,0,0,1
1254,4650,0,0,1
1255,4652,0,0,1
1256,4654,0,1,0
1257,4656,0,0,1
1258,4659,0,0,1
1259,4661,0,0,1
1260,4663,0,0,1
1261,4667,0,1,0
1262,4668,0,0,1
1263,4669,0,0,1
1264,4671,0,0,1
1265,4672,0,0,1
1266,4674,0,0,1
1267,4675,0,0,1
1268,4678,0,0,1
1269,4681,0,0,1
1270,4684,0,0,1
1271,4689,0,0,1
1272,4695,0,0,1
1273,4696,0,0,1
1274,4697,0,2,0
1275,4699,0,0,1
1276,4701,0,0,1
1277,4710,0,0,1
1278,4714,0,0,1
1279,4719,0,0,1
1280,4724,0,0,1
1281,4725,0,0,1
1282,4732,0,0,1
1283,4733,0,0,1
1284,4738,0,0,1
1285,4750,0,0,1
1286,4760,0,0,1
1287,4773,0,0,1
1288,4774,0,0,1
1289,4777,0,0,1
1290,4779,0,0,1
1291,4781,0,0,1
1292,4784,0,0,1
1293,4788,0,0,1
1294,4793,0,0,1
1295,4794,0,1,0
1296,4795,0,0,1
1297,4796,0,0,1
1298,4800,0,0,1
1299,4801,0,0,1
1300,4803,0,0,1
1301,4807,0,0,1
1302,4813,0,0,1
1303,4814,0,0,1
1304,4817,0,0,1
1305,4822,0,0,1
1306,4828,0,0,1
1307,4832,0,0,1
1308,4839,0,0,1
1309,4843,0,0,1
1310,4847,0,1,0
1311,4848,0,0,1
1312,4849,0,0,1
1313,4855,0,1,0
1314,4858,0,0,1
1315,4859,0,0,1
1316,4862,0,0,1
1317,4863,0,1,0
1318,4880,0,0,1
1319,4882,0,0,1
1320,4887,0,0,1
1321,4891,0,0,1
1322,4893,0,0,1
1323,4902,0,0,1
1324,4907,0,0,1
1325,4909,0,0,1
1326,4910,0,1,0
1327,4913,0,0,1
1328,4916,0,0,1
1329,4922,0,1,0
1330,4923,0,0,1
1331,4932,0,0,1
1332,4938,0,0,1
1333,4941,0,0,1
1334,4944,0,0,1
1335,4947,0,0,1
1336,4953,0,0,1
1337,4958,0,0,1
1338,4967,0,0,1
1339,4971,0,1,0
1340,4974,0,0,1
1341,4977,0,0,1
1342,4980,0,0,1
1343,4989,0,0,1
1344,4999,0,0,1
1345,5001,0,1,0
1346,5006,0,0,1
1347,5008,0,0,1
1348,5009,0,0,1
1349,5011,0,0,1
1350,5023,0,2,0
1351,5033,0,0,1
1352,5035,0,0,1
1353,5042,0,0,1
1354,5044,0,0,1
1355,5048,0,0,1
1356,5049,0,0,1
1357,5051,0,0,1
1358,5056,0,0,1
1359,5060,0,0,1
1360,5061,0,0,1
1361,5062,0,0,1
1362,5063,0,0,1
1363,5064,0,1,0
1364,5068,0,0,1
1365,5071,0,0,1
1366,5074,0,0,1
1367,5077,0,0,1
1368,5078,0,0,1
1369,5079,0,0,1
1370,5080,0,0,1
1371,5081,0,0,1
1372,5083,0,0,1
1373,5084,0,0,1
1374,5086,0,0,1
1375,5089,0,0,1
1376,5091,0,0,1
1377,5098,0,1,0
1378,5099,0,0,1
1379,5102,0,0,1
1380,5107,0,0,1
1381,5110,0,0,1
1382,5114,0,0,1
1383,5117,0,0,1
1384,5127,0,0,1
1385,5129,0,0,1
1386,5147,0,0,1
1387,5148,0,0,1
1388,5153,0,0,1
1389,5157,0,0,1
1390,5164,0,0,1
1391,5167,0,0,1
1392,5168,0,0,1
1393,5169,0,0,1
1394,5191,0,0,1
1395,5194,0,0,1
1396,5195,0,0,1
1397,5197,0,0,1
1398,5201,0,0,1
1399,5205,0,0,1
1400,5207,0,0,1
1401,5215,0,0,1
1402,5217,0,0,1
1403,5220,0,0,1
1404,5222,0,0,1
1405,5223,0,0,1
1406,5224,0,1,0
1407,5225,0,0,1
1408,5226,0,0,1
1409,5231,0,0,1
1410,5235,0,0,1
1411,5239,0,0,1
1412,5240,0,0,1
1413,5252,0,0,1
1414,5253,0,0,1
1415,5261,0,0,1
1416,5270,0,0,1
1417,5272,0,0,1
1418,5283,0,0,1
1419,5286,0,0,1
1420,5288,0,0,1
1421,5290,0,0,1
1422,5294,0,0,1
1423,5298,0,0,1
1424,5301,0,0,1
1425,5304,0,0,1
1426,5305,0,1,0
1427,5306,0,0,1
1428,5307,0,0,1
1429,5311,0,0,1
1430,5319,0,0,1
1431,5320,0,0,1
1432,5321,0,0,1
1433,5322,0,0,1
1434,5326,0,0,1
1435,5328,0,0,1
1436,5331,0,0,1
1437,5334,0,0,1
1438,5335,0,0,1
1439,5336,0,0,1
1440,5344,0,0,1
1441,5349,0,0,1
1442,5350,0,0,1
1443,5353,0,0,1
1444,5355,0,0,1
1445,5360,0,0,1
1446,5365,0,0,1
1447,5375,0,0,1
1448,5378,0,0,1
1449,5379,0,0,1
1450,5380,0,0,1
1451,5385,0,0,1
1452,5389,0,0,1
1453,5391,0,0,1
1454,5400,0,0,1
1455,5405,0,0,1
1456,5407,0,0,1
1457,5410,0,0,1
1458,5413,0,4,0
1459,5418,0,0,1
1460,5419,0,0,1
1461,5420,0,0,1
1462,5424,0,0,1
1463,5436,0,0,1
1464,5437,0,0,1
1465,5438,0,1,0
1466,5442,0,0,1
1467,5444,0,0,1
1468,5449,0,0,1
1469,5450,0,0,1
1470,5454,0,0,1
1471,5461,0,0,1
1472,5472,0,0,1
1473,5473,0,0,1
1474,5477,0,0,1
1475,5480,0,0,1
1476,5483,0,0,1
1477,5490,0,0,1
1478,5503,0,0,1
1479,5505,0,0,1
1480,5513,0,0,1
1481,5521,0,0,1
1482,5523,0,0,1
1483,5526,0,0,1
1484,5538,0,0,1
1485,5548,0,0,1
1486,5551,0,0,1
1487,5562,0,0,1
1488,5568,0,0,1
1489,5570,0,0,1
1490,5573,0,0,1
1491,5578,0,0,1
1492,5580,0,0,1
1493,5583,0,0,1
1494,5585,0,1,0
1495,5588,0,0,1
1496,5593,0,0,1
1497,5595,0,0,1
1498,5606,0,0,1
1499,5610,0,0,1
1500,5611,0,0,1
1501,5612,0,0,1
1502,5616,0,0,1
1503,5619,0,0,1
1504,5623,0,1,0
1505,5624,0,0,1
1506,5625,0,0,1
1507,5626,0,0,1
1508,5627,0,0,1
1509,5630,0,0,1
1510,5636,0,0,1
1511,5644,0,0,1
1512,5647,0,0,1
1513,5648,0,0,1
1514,5649,0,0,1
1515,5654,0,0,1
1516,5658,0,0,1
1517,5662,0,0,1
1518,5665,0,0,1
1519,5666,0,0,1
1520,5674,0,0,1
1521,5677,0,0,1
1522,5688,0,0,1
1523,5691,0,0,1
1524,5699,0,0,1
1525,5702,0,0,1
1526,5704,0,0,1
1527,5705,0,0,1
1528,5714,0,0,1
1529,5716,0,0,1
1530,5719,0,0,1
1531,5721,0,0,1
1532,5722,0,0,1
1533,5726,0,0,1
1534,5728,0,0,1
1535,5732,0,0,1
1536,5738,0,0,1
1537,5739,0,0,1
1538,5744,0,0,1
1539,5746,0,0,1
1540,5749,0,0,1
1541,5750,0,0,1
1542,5755,0,0,1
1543,5757,0,0,1
1544,5760,0,2,0
1545,5771,0,0,1
1546,5778,0,0,1
1547,5790,0,1,0
1548,5791,0,0,1
1549,5797,0,0,1
1550,5802,0,0,1
1551,5804,0,1,0
1552,5808,0,0,1
1553,5809,0,0,1
1554,5810,0,0,1
1555,5819,0,0,1
1556,5821,0,0,1
1557,5822,0,0,1
1558,5825,0,0,1
1559,5826,0,0,1
1560,5832,0,0,1
1561,5840,0,0,1
1562,5846,0,0,1
1563,5847,0,0,1
1564,5848,0,0,1
1565,5849,0,0,1
1566,5856,0,0,1
1567,5858,0,0,1
1568,5862,0,0,1
1569,5864,0,0,1
1570,5872,0,0,1
1571,5878,0,0,1
1572,5883,0,0,1
1573,5885,0,0,1
1574,5888,0,0,1
1575,5892,0,0,1
1576,5895,0,0,1
1577,5904,0,0,1
1578,5906,0,0,1
1579,5907,0,0,1
1580,5911,0,0,1
1581,5917,0,0,1
1582,5920,0,0,1
1583,5922,0,0,1
1584,5923,0,1,0
1585,5925,0,0,1
1586,5931,0,0,1
1587,5939,0,0,1
1588,5943,0,0,1
1589,5950,0,0,1
1590,5951,0,0,1
1591,5956,0,0,1
1592,5958,0,0,1
1593,5961,0,0,1
1594,5964,0,1,0
1595,5965,0,0,1
1596,5971,0,0,1
1597,5974,0,0,1
1598,5975,0,0,1
1599,5984,0,0,1
1600,5987,0,0,1
1601,5989,0,0,1
1602,5991,0,0,1
1603,5995,0,0,1
1604,5997,0,0,1
1605,6009,0,0,1
1606,6010,0,0,1
1607,6016,0,0,1
1608,6017,0,0,1
1609,6021,0,0,1
1610,6025,0,0,1
1611,6034,0,0,1
1612,6037,0,0,1
1613,6041,0,0,1
1614,6042,0,0,1
1615,6043,0,0,1
1616,6044,0,1,0
1617,6048,0,0,1
1618,6051,0,0,1
1619,6075,0,0,1
1620,6077,0,1,0
1621,6079,0,0,1
1622,6081,0,0,1
1623,6082,0,0,1
1624,6089,0,0,1
1625,6092,0,0,1
1626,6095,0,0,1
1627,6097,0,0,1
1628,6098,0,0,1
1629,6100,0,0,1
1630,6102,0,0,1
1631,6107,0,1,0
1632,6108,0,0,1
1633,6110,0,0,1
1634,6114,0,0,1
1635,6118,0,0,1
1636,6121,0,0,1
1637,6122,0,0,1
1638,6125,0,1,0
1639,6126,0,0,1
1640,6129,0,0,1
1641,6131,0,0,1
1642,6132,0,0,1
1643,6133,0,0,1
1644,6139,0,0,1
1645,6140,0,0,1
1646,6143,0,0,1
1647,6147,0,0,1
1648,6148,0,0,1
1649,6149,0,0,1
1650,6150,0,0,1
1651,6151,0,0,1
1652,6161,0,0,1
1653,6163,0,0,1
1654,6172,0,0,1
1655,6173,0,0,1
1656,6180,0,0,1
1657,6185,0,0,1
1658,6186,0,0,1
1659,6187,0,0,1
1660,6189,0,0,1
1661,6191,0,0,1
1662,6194,0,0,1
1663,6195,0,0,1
1664,6205,0,0,1
1665,6209,0,0,1
1666,6210,0,1,0
1667,6214,0,0,1
1668,6215,0,1,0
1669,6217,0,0,1
1670,6218,0,0,1
1671,6220,0,1,0
1672,6221,0,0,1
1673,6226,0,0,1
1674,6227,0,0,1
1675,6230,0,0,1
1676,6237,0,0,1
1677,6242,0,0,1
1678,6248,0,0,1
1679,6250,0,0,1
1680,6255,0,0,1
1681,6257,0,0,1
1682,6260,0,0,1
1683,6265,0,0,1
1684,6267,0,0,1
1685,6268,0,0,1
1686,6271,0,0,1
1687,6274,0,0,1
1688,6279,0,0,1
1689,6282,0,0,1
1690,6289,0,0,1
1691,6290,0,0,1
1692,6298,0,0,1
1693,6310,0,0,1
1694,6311,0,0,1
1695,6312,0,0,1
1696,6313,0,0,1
1697,6316,0,0,1
1698,6318,0,0,1
1699,6320,0,0,1
1700,6321,0,0,1
1701,6326,0,1,0
1702,6328,0,0,1
1703,6332,0,0,1
1704,6334,0,0,1
1705,6335,0,0,1
1706,6344,0,0,1
1707,6345,0,0,1
1708,6347,0,0,1
1709,6348,0,0,1
1710,6358,0,1,0
1711,6363,0,0,1
1712,6364,0,0,1
1713,6374,0,0,1
1714,6375,0,0,1
1715,6378,0,0,1
1716,6382,0,0,1
1717,6385,0,0,1
1718,6388,0,0,1
1719,6390,0,0,1
1720,6398,0,0,1
1721,6402,0,0,1
1722,6403,0,0,1
1723,6404,0,0,1
1724,6411,0,0,1
1725,6413,0,0,1
1726,6414,0,0,1
1727,6417,0,0,1
1728,6426,0,0,1
1729,6427,0,0,1
1730,6428,0,0,1
1731,6432,0,0,1
1732,6434,0,0,1
1733,6442,0,0,1
1734,6443,0,0,1
1735,6446,0,0,1
1736,6453,0,0,1
1737,6459,0,0,1
1738,6478,0,0,1
1739,6481,0,0,1
1740,6485,0,0,1
1741,6494,0,0,1
1742,6497,0,0,1
1743,6498,0,0,1
1744,6504,0,0,1
1745,6513,0,0,1
1746,6514,0,0,1
1747,6515,0,0,1
1748,6516,0,0,1
1749,6525,0,0,1
1750,6529,0,0,1
1751,6531,0,0,1
1752,6535,0,0,1
1753,6540,0,0,1
1754,6541,0,0,1
1755,6548,0,0,1
1756,6551,0,0,1
1757,6554,0,0,1
1758,6555,0,0,1
1759,6556,0,0,1
1760,6561,0,0,1
1761,6563,0,0,1
1762,6565,0,0,1
1763,6567,0,0,1
1764,6569,0,0,1
1765,6570,0,3,0
1766,6572,0,0,1
1767,6581,0,1,0
1768,6589,0,0,1
1769,6590,0,0,1
1770,6597,0,0,1
1771,6598,0,0,1
1772,6605,0,0,1
1773,6607,0,0,1
1774,6609,0,0,1
1775,6611,0,0,1
1776,6613,0,0,1
1777,6616,0,0,1
1778,6627,0,0,1
1779,6631,0,0,1
1780,6633,0,0,1
1781,6636,0,0,1
1782,6643,0,0,1
1783,6644,0,0,1
1784,6645,0,3,0
1785,6647,0,0,1
1786,6648,0,0,1
1787,6649,0,0,1
1788,6651,0,0,1
1789,6654,0,0,1
1790,6655,0,0,1
1791,6667,0,0,1
1792,6668,0,0,1
1793,6677,0,0,1
1794,6680,0,0,1
1795,6681,0,0,1
1796,6684,0,0,1
1797,6690,0,0,1
1798,6692,0,0,1
1799,6693,0,0,1
1800,6698,0,0,1
1801,6701,0,0,1
1802,6707,0,0,1
1803,6709,0,0,1
1804,6710,0,0,1
1805,6722,0,0,1
1806,6724,0,0,1
1807,6729,0,1,0
1808,6732,0,0,1
1809,6734,0,0,1
1810,6736,0,0,1
1811,6739,0,1,0
1812,6740,0,0,1
1813,6742,0,0,1
1814,6744,0,0,1
1815,6748,0,0,1
1816,6750,0,1,0
1817,6752,0,0,1
1818,6755,0,0,1
1819,6757,0,0,1
1820,6762,0,0,1
1821,6763,0,0,1
1822,6772,0,2,0
1823,6776,0,0,1
1824,6779,0,0,1
1825,6780,0,0,1
1826,6781,0,0,1
1827,6789,0,0,1
1828,6791,0,0,1
1829,6804,0,0,1
1830,6810,0,1,0
1831,6814,0,0,1
1832,6818,0,0,1
1833,6824,0,0,1
1834,6828,0,0,1
1835,6833,0,0,1
1836,6841,0,0,1
1837,6845,0,0,1
1838,6848,0,0,1
1839,6849,0,0,1
1840,6852,0,0,1
1841,6858,0,0,1
1842,6859,0,0,1
1843,6860,0,0,1
1844,6864,0,0,1
1845,6873,0,0,1
1846,6874,0,0,1
1847,6884,0,0,1
1848,6887,0,0,1
1849,6890,0,0,1
1850,6893,0,0,1
1851,6896,0,0,1
1852,6897,0,0,1
1853,6907,0,0,1
1854,6908,0,0,1
1855,6909,0,0,1
1856,6912,0,0,1
1857,6913,0,0,1
1858,6915,0,0,1
1859,6916,0,0,1
1860,6921,0,2,0
1861,6929,0,0,1
1862,6935,0,0,1
1863,6936,0,0,1
1864,6948,0,0,1
1865,6951,0,0,1
1866,6952,0,0,1
1867,6953,0,1,0
1868,6956,0,0,1
1869,6958,0,0,1
1870,6966,0,0,1
1871,6971,0,0,1
1872,6973,0,0,1
1873,6975,0,0,1
1874,6980,0,0,1
1875,6984,0,0,1
1876,6987,0,1,0
1877,6988,0,0,1
1878,6989,0,0,1
1879,6991,0,0,1
1880,6992,0,0,1
1881,6994,0,0,1
1882,6999,0,0,1
1883,7007,0,0,1
1884,7012,0,0,1
1885,7014,0,0,1
1886,7020,0,0,1
1887,7022,0,0,1
1888,7023,0,0,1
1889,7032,0,0,1
1890,7033,0,0,1
1891,7036,0,0,1
1892,7044,0,0,1
1893,7047,0,0,1
1894,7049,0,0,1
1895,7050,0,0,1
1896,7052,0,0,1
1897,7054,0,0,1
1898,7055,0,0,1
1899,7058,0,0,1
1900,7064,0,2,0
1901,7066,0,0,1
1902,7074,0,0,1
1903,7088,0,0,1
1904,7089,0,0,1
1905,7092,0,0,1
1906,7093,0,1,0
1907,7094,0,0,1
1908,7103,0,0,1
1909,7105,0,0,1
1910,7106,0,0,1
1911,7108,0,0,1
1912,7115,0,0,1
1913,7117,0,0,1
1914,7126,0,0,1
1915,7128,0,0,1
1916,7129,0,0,1
1917,7133,0,0,1
1918,7137,0,0,1
1919,7140,0,0,1
1920,7157,0,0,1
1921,7159,0,0,1
1922,7161,0,0,1
1923,7163,0,0,1
1924,7166,0,0,1
1925,7167,0,0,1
1926,7168,0,0,1
1927,7174,0,0,1
1928,7175,0,0,1
1929,7177,0,0,1
1930,7179,0,0,1
1931,7186,0,1,0
1932,7188,0,0,1
1933,7194,0,0,1
1934,7195,0,0,1
1935,7196,0,0,1
1936,7198,0,0,1
1937,7202,0,0,1
1938,7205,0,0,1
1939,7206,0,0,1
1940,7207,0,0,1
1941,7212,0,0,1
1942,7213,0,0,1
1943,7214,0,0,1
1944,7215,0,1,0
1945,7220,0,0,1
1946,7222,0,0,1
1947,7224,0,0,1
1948,7231,0,0,1
1949,7238,0,0,1
1950,7247,0,2,0
1951,7249,0,0,1
1952,7252,0,0,1
1953,7257,0,0,1
1954,7262,0,0,1
1955,7264,0,2,0
1956,7267,0,0,1
1957,7270,0,0,1
1958,7275,0,0,1
1959,7277,0,0,1
1960,7279,0,0,1
1961,7288,0,0,1
1962,7289,0,0,1
1963,7296,0,0,1
1964,7297,0,0,1
1965,7298,0,0,1
1966,7301,0,0,1
1967,7308,0,0,1
1968,7310,0,0,1
1969,7333,0,1,0
1970,7334,0,0,1
1971,7337,0,0,1
1972,7339,0,0,1
1973,7342,0,0,1
1974,7347,0,0,1
1975,7354,0,0,1
1976,7356,0,0,1
1977,7359,0,0,1
1978,7368,0,0,1
1979,7372,0,0,1
1980,7373,0,0,1
1981,7374,0,0,1
1982,7381,0,0,1
1983,7386,0,0,1
1984,7387,0,0,1
1985,7389,0,0,1
1986,7393,0,0,1
1987,7403,0,0,1
1988,7407,0,0,1
1989,7408,0,0,1
1990,7411,0,0,1
1991,7414,0,0,1
1992,7416,0,0,1
1993,7425,0,0,1
1994,7427,0,0,1
1995,7431,0,2,0
1996,7442,0,0,1
1997,7451,0,0,1
1998,7454,0,0,1
1999,7457,0,0,1
2000,7464,0,0,1
2001,7482,0,0,1
2002,7484,0,0,1
2003,7485,0,0,1
2004,7495,0,0,1
2005,7496,0,0,1
2006,7498,0,3,0
2007,7501,0,0,1
2008,7523,0,0,1
2009,7530,0,0,1
2010,7531,0,0,1
2011,7533,0,0,1
2012,7534,0,0,1
2013,7535,0,0,1
2014,7539,0,0,1
2015,7556,0,0,1
2016,7561,0,0,1
2017,7566,0,0,1
2018,7569,0,0,1
2019,7575,0,0,1
2020,7577,0,0,1
2021,7581,0,0,1
2022,7591,0,0,1
2023,7593,0,0,1
2024,7595,0,1,0
2025,7598,0,2,0
2026,7599,0,0,1
2027,7602,0,0,1
2028,7603,0,0,1
2029,7605,0,0,1
2030,7607,0,0,1
2031,7610,0,0,1
2032,7611,0,0,1
2033,7612,0,1,0
2034,7614,0,0,1
2035,7615,0,0,1
2036,7617,0,0,1
2037,7618,0,0,1
2038,7625,0,0,1
2039,7630,0,0,1
2040,7636,0,0,1
2041,7644,0,0,1
2042,7654,0,1,0
2043,7659,0,0,1
2044,7669,0,0,1
2045,7671,0,0,1
2046,7672,0,0,1
2047,7681,0,0,1
2048,7686,0,0,1
2049,7687,0,0,1
2050,7689,0,0,1
2051,7698,0,0,1
2052,7699,0,0,1
2053,7700,0,0,1
2054,7702,0,0,1
2055,7705,0,0,1
2056,7709,0,0,1
2057,7715,0,0,1
2058,7717,0,0,1
2059,7718,0,0,1
2060,7722,0,0,1
2061,7729,0,0,1
2062,7731,0,0,1
2063,7732,0,0,1
2064,7734,0,0,1
2065,7736,0,0,1
2066,7740,0,0,1
2067,7741,0,0,1
2068,7744,0,0,1
2069,7750,0,0,1
2070,7755,0,0,1
2071,7760,0,0,1
2072,7761,0,1,0
2073,7766,0,0,1
2074,7767,0,0,1
2075,7768,0,1,0
2076,7769,0,0,1
2077,7770,0,0,1
2078,7780,0,0,1
2079,7784,0,0,1
2080,7785,0,1,0
2081,7792,0,1,0
2082,7796,0,1,0
2083,7797,0,0,1
2084,7816,0,0,1
2085,7819,0,0,1
2086,7824,0,0,1
2087,7825,0,0,1
2088,7827,0,0,1
2089,7829,0,0,1
2090,7832,0,0,1
2091,7848,0,0,1
2092,7849,0,0,1
2093,7851,0,0,1
2094,7853,0,0,1
2095,7854,0,1,0
2096,7866,0,0,1
2097,7867,0,0,1
2098,7868,0,0,1
2099,7872,0,0,1
2100,7879,0,0,1
2101,7880,0,0,1
2102,7882,0,0,1
2103,7885,0,3,0
2104,7887,0,0,1
2105,7890,0,0,1
2106,7893,0,0,1
2107,7900,0,0,1
2108,7905,0,0,1
2109,7907,0,0,1
2110,7913,0,0,1
2111,7914,0,0,1
2112,7915,0,0,1
2113,7916,0,0,1
2114,7920,0,0,1
2115,7921,0,0,1
2116,7926,0,0,1
2117,7932,0,0,1
2118,7937,0,0,1
2119,7939,0,0,1
2120,7941,0,0,1
2121,7943,0,0,1
2122,7947,0,1,0
2123,7950,0,0,1
2124,7952,0,1,0
2125,7959,0,0,1
2126,7961,0,0,1
2127,7964,0,0,1
2128,7967,0,1,0
2129,7968,0,0,1
2130,7974,0,0,1
2131,7977,0,0,1
2132,7990,0,0,1
2133,7992,0,0,1
2134,7995,0,0,1
2135,8001,0,0,1
2136,8004,0,0,1
2137,8007,0,0,1
2138,8010,0,0,1
2139,8013,0,0,1
2140,8014,0,0,1
2141,8015,0,0,1
2142,8017,0,0,1
2143,8019,0,0,1
2144,8022,0,0,1
2145,8024,0,0,1
2146,8025,0,0,1
2147,8028,0,0,1
2148,8035,0,0,1
2149,8051,0,0,1
2150,8055,0,0,1
2151,8056,0,0,1
2152,8058,0,0,1
2153,8063,0,0,1
2154,8066,0,0,1
2155,8071,0,0,1
2156,8074,0,0,1
2157,8079,0,0,1
2158,8082,0,0,1
2159,8090,0,0,1
2160,8092,0,0,1
2161,8093,0,0,1
2162,8094,0,0,1
2163,8108,0,0,1
2164,8111,0,0,1
2165,8112,0,0,1
2166,8115,0,0,1
2167,8118,0,0,1
2168,8123,0,0,1
2169,8124,0,0,1
2170,8131,0,0,1
2171,8136,0,0,1
2172,8140,0,0,1
2173,8150,0,2,0
2174,8153,0,3,0
2175,8157,0,0,1
2176,8160,0,0,1
2177,8172,0,0,1
2178,8174,0,3,0
2179,8181,0,0,1
2180,8184,0,0,1
2181,8194,0,0,1
2182,8195,0,0,1
2183,8201,0,0,1
2184,8202,0,0,1
2185,8207,0,1,0
2186,8213,0,0,1
2187,8214,0,0,1
2188,8218,0,0,1
2189,8220,0,0,1
2190,8222,0,0,1
2191,8227,0,0,1
2192,8231,0,0,1
2193,8240,0,0,1
2194,8241,0,0,1
2195,8242,0,0,1
2196,8244,0,0,1
2197,8251,0,0,1
2198,8252,0,0,1
2199,8256,0,0,1
2200,8257,0,0,1
2201,8263,0,0,1
2202,8270,0,0,1
2203,8271,0,0,1
2204,8275,0,0,1
2205,8279,0,0,1
2206,8282,0,0,1
2207,8283,0,0,1
2208,8284,0,0,1
2209,8287,0,0,1
2210,8293,0,0,1
2211,8298,0,1,0
2212,8303,0,0,1
2213,8310,0,0,1
2214,8312,0,0,1
2215,8313,0,0,1
2216,8314,0,0,1
2217,8317,0,0,1
2218,8318,0,0,1
2219,8319,0,0,1
2220,8323,0,0,1
2221,8328,0,0,1
2222,8335,0,0,1
2223,8338,0,0,1
2224,8340,0,0,1
2225,8341,0,0,1
2226,8342,0,0,1
2227,8347,0,0,1
2228,8353,0,0,1
2229,8356,0,0,1
2230,8360,0,0,1
2231,8363,0,0,1
2232,8367,0,0,1
2233,8369,0,0,1
2234,8371,0,0,1
2235,8373,0,0,1
2236,8384,0,0,1
2237,8385,0,1,0
2238,8386,0,0,1
2239,8387,0,3,0
2240,8388,0,0,1
2241,8394,0,0,1
2242,8397,0,0,1
2243,8399,0,0,1
2244,8414,0,0,1
2245,8416,0,0,1
2246,8423,0,4,0
2247,8425,0,0,1
2248,8428,0,0,1
2249,8432,0,0,1
2250,8436,0,0,1
2251,8438,0,0,1
2252,8445,0,0,1
2253,8452,0,0,1
2254,8456,0,0,1
2255,8459,0,0,1
2256,8463,0,1,0
2257,8465,0,0,1
2258,8466,0,0,1
2259,8467,0,1,0
2260,8473,0,0,1
2261,8479,0,0,1
2262,8483,0,0,1
2263,8484,0,0,1
2264,8493,0,0,1
2265,8495,0,0,1
2266,8497,0,4,0
2267,8498,0,0,1
2268,8501,0,0,1
2269,8502,0,0,1
2270,8503,0,0,1
2271,8505,0,0,1
2272,8510,0,0,1
2273,8512,0,3,0
2274,8518,0,0,1
2275,8521,0,0,1
2276,8522,0,0,1
2277,8526,0,1,0
2278,8527,0,0,1
2279,8530,0,0,1
2280,8531,0,3,0
2281,8537,0,0,1
2282,8538,0,0,1
2283,8542,0,0,1
2284,8544,0,0,1
2285,8548,0,0,1
2286,8550,0,0,1
2287,8555,0,0,1
2288,8566,0,0,1
2289,8570,0,0,1
2290,8573,0,0,1
2291,8576,0,0,1
2292,8579,0,0,1
2293,8582,0,0,1
2294,8583,0,0,1
2295,8591,0,0,1
2296,8593,0,0,1
2297,8594,0,0,1
2298,8596,0,0,1
2299,8598,0,0,1
2300,8601,0,0,1
2301,8603,0,0,1
2302,8604,0,0,1
2303,8611,0,0,1
2304,8612,0,0,1
2305,8613,0,0,1
2306,8615,0,1,0
2307,8616,0,0,1
2308,8617,0,0,1
2309,8618,0,0,1
2310,8627,0,0,1
2311,8631,0,0,1
2312,8635,0,0,1
2313,8644,0,0,1
2314,8646,0,0,1
2315,8648,0,0,1
2316,8656,0,0,1
2317,8663,0,0,1
2318,8670,0,0,1
2319,8672,0,0,1
2320,8673,0,0,1
2321,8677,0,0,1
2322,8680,0,0,1
2323,8682,0,0,1
2324,8685,0,0,1
2325,8687,0,0,1
2326,8691,0,0,1
2327,8694,0,0,1
2328,8695,0,0,1
2329,8701,0,1,0
2330,8702,0,0,1
2331,8707,0,0,1
2332,8724,0,0,1
2333,8725,0,0,1
2334,8729,0,0,1
2335,8734,0,0,1
2336,8736,0,0,1
2337,8738,0,0,1
2338,8740,0,0,1
2339,8744,0,0,1
2340,8748,0,0,1
2341,8749,0,0,1
2342,8760,0,0,1
2343,8761,0,2,0
2344,8767,0,0,1
2345,8770,0,0,1
2346,8773,0,0,1
2347,8776,0,0,1
2348,8781,0,0,1
2349,8783,0,0,1
2350,8784,0,0,1
2351,8786,0,0,1
2352,8787,0,1,0
2353,8793,0,0,1
2354,8795,0,0,1
2355,8797,0,0,1
2356,8798,0,0,1
2357,8801,0,0,1
2358,8802,0,0,1
2359,8803,0,1,0
2360,8806,0,0,1
2361,8808,0,0,1
2362,8809,0,0,1
2363,8812,0,0,1
2364,8821,0,0,1
2365,8824,0,0,1
2366,8825,0,0,1
2367,8829,0,0,1
2368,8831,0,0,1
2369,8834,0,0,1
2370,8839,0,0,1
2371,8842,0,0,1
2372,8853,0,0,1
2373,8856,0,0,1
2374,8857,0,0,1
2375,8860,0,0,1
2376,8866,0,0,1
2377,8873,0,0,1
2378,8885,0,0,1
2379,8890,0,0,1
2380,8893,0,0,1
2381,8894,0,0,1
2382,8895,0,0,1
2383,8896,0,0,1
2384,8900,0,0,1
2385,8905,0,0,1
2386,8907,0,0,1
2387,8914,0,0,1
2388,8916,0,1,0
2389,8918,0,0,1
2390,8924,0,0,1
2391,8925,0,0,1
2392,8927,0,0,1
2393,8933,0,0,1
2394,8934,0,0,1
2395,8949,0,0,1
2396,8951,0,0,1
2397,8953,0,0,1
2398,8955,0,0,1
2399,8960,0,0,1
2400,8964,0,0,1
2401,8975,0,0,1
2402,8981,0,0,1
2403,8983,0,0,1
2404,8985,0,0,1
2405,8986,0,0,1
2406,8988,0,0,1
2407,8989,0,1,0
2408,8992,0,0,1
2409,8995,0,0,1
2410,8998,0,1,0
2411,9000,0,0,1
2412,9001,0,0,1
2413,9002,0,0,1
2414,9005,0,0,1
2415,9007,0,0,1
2416,9010,0,0,1
2417,9011,0,0,1
2418,9018,0,0,1
2419,9022,0,0,1
2420,9027,0,0,1
2421,9029,0,0,1
2422,9030,0,0,1
2423,9034,0,0,1
2424,9038,0,0,1
2425,9046,0,0,1
2426,9053,0,0,1
2427,9056,0,0,1
2428,9057,0,0,1
2429,9058,0,0,1
2430,9060,0,0,1
2431,9061,0,0,1
2432,9063,0,0,1
2433,9067,0,0,1
2434,9072,0,0,1
2435,9073,0,0,1
2436,9075,0,0,1
2437,9077,0,0,1
2438,9079,0,0,1
2439,9083,0,0,1
2440,9084,0,1,0
2441,9085,0,0,1
2442,9087,0,0,1
2443,9097,0,0,1
2444,9103,0,0,1
2445,9104,0,0,1
2446,9107,0,0,1
2447,9118,0,0,1
2448,9123,0,0,1
2449,9124,0,0,1
2450,9125,0,0,1
2451,9128,0,0,1
2452,9129,0,0,1
2453,9131,0,0,1
2454,9134,0,0,1
2455,9135,0,0,1
2456,9136,0,0,1
2457,9140,0,0,1
2458,9146,0,0,1
2459,9147,0,0,1
2460,9156,0,0,1
2461,9163,0,0,1
2462,9173,0,0,1
2463,9179,0,0,1
2464,9180,0,0,1
2465,9181,0,2,0
2466,9182,0,0,1
2467,9183,0,0,1
2468,9188,0,0,1
2469,9190,0,0,1
2470,9191,0,0,1
2471,9193,0,0,1
2472,9194,0,0,1
2473,9199,0,0,1
2474,9201,0,0,1
2475,9203,0,0,1
2476,9204,0,0,1
2477,9206,0,0,1
2478,9210,0,0,1
2479,9218,0,1,0
2480,9219,0,0,1
2481,9220,0,0,1
2482,9221,0,0,1
2483,9230,0,0,1
2484,9238,0,0,1
2485,9239,0,0,1
2486,9241,0,0,1
2487,9244,0,0,1
2488,9245,0,0,1
2489,9246,0,1,0
2490,9259,0,0,1
2491,9260,0,0,1
2492,9261,0,0,1
2493,9271,0,0,1
2494,9282,0,0,1
2495,9283,0,0,1
2496,9284,0,0,1
2497,9286,0,0,1
2498,9289,0,0,1
2499,9293,0,0,1
2500,9294,0,0,1
2501,9296,0,0,1
2502,9298,0,0,1
2503,9302,0,0,1
2504,9309,0,0,1
2505,9311,0,0,1
2506,9331,0,0,1
2507,9332,0,0,1
2508,9334,0,0,1
2509,9336,0,0,1
2510,9337,0,0,1
2511,9338,0,0,1
2512,9339,0,0,1
2513,9343,0,0,1
2514,9346,0,0,1
2515,9363,0,0,1
2516,9364,0,0,1
2517,9365,0,0,1
2518,9366,0,0,1
2519,9371,0,0,1
2520,9372,0,0,1
2521,9376,0,1,0
2522,9389,0,2,0
2523,9392,0,0,1
2524,9394,0,0,1
2525,9395,0,0,1
2526,9402,0,0,1
2527,9404,0,0,1
2528,9412,0,0,1
2529,9420,0,0,1
2530,9422,0,0,1
2531,9425,0,0,1
2532,9433,0,0,1
2533,9435,0,0,1
2534,9436,0,0,1
2535,9437,0,0,1
2536,9442,0,0,1
2537,9444,0,0,1
2538,9450,0,0,1
2539,9456,0,0,1
2540,9457,0,0,1
2541,9459,0,0,1
2542,9462,0,0,1
2543,9470,0,0,1
2544,9472,0,0,1
2545,9474,0,0,1
2546,9477,0,0,1
2547,9479,0,0,1
2548,9484,0,0,1
2549,9488,0,0,1
2550,9490,0,0,1
2551,9491,0,0,1
2552,9492,0,0,1
2553,9496,0,0,1
2554,9502,0,0,1
2555,9504,0,0,1
2556,9506,0,1,0
2557,9507,0,0,1
2558,9508,0,0,1
2559,9511,0,0,1
2560,9512,0,0,1
2561,9513,0,0,1
2562,9518,0,0,1
2563,9519,0,0,1
2564,9527,0,1,0
2565,9528,0,0,1
2566,9533,0,0,1
2567,9537,0,0,1
2568,9544,0,0,1
2569,9549,0,0,1
2570,9554,0,0,1
2571,9556,0,0,1
2572,9559,0,0,1
2573,9563,0,0,1
2574,9566,0,0,1
2575,9573,0,0,1
2576,9577,0,0,1
2577,9582,0,0,1
2578,9585,0,0,1
2579,9591,0,0,1
2580,9593,0,0,1
2581,9594,0,0,1
2582,9596,0,0,1
2583,9604,0,0,1
2584,9605,0,0,1
2585,9607,0,0,1
2586,9621,0,0,1
2587,9628,0,0,1
2588,9637,0,0,1
2589,9649,0,0,1
2590,9655,0,0,1
2591,9656,0,0,1
2592,9657,0,0,1
2593,9662,0,0,1
2594,9667,0,0,1
2595,9671,0,0,1
2596,9672,0,0,1
2597,9676,0,0,1
2598,9679,0,0,1
2599,9681,0,0,1
2600,9684,0,0,1
2601,9688,0,1,0
2602,9694,0,0,1
2603,9699,0,0,1
2604,9712,0,0,1
2605,9714,0,0,1
2606,9718,0,0,1
2607,9722,0,0,1
2608,9725,0,0,1
2609,9729,0,0,1
2610,9734,0,0,1
2611,9738,0,0,1
2612,9739,0,0,1
2613,9740,0,0,1
2614,9742,0,2,0
2615,9750,0,0,1
2616,9752,0,0,1
2617,9753,0,0,1
2618,9755,0,0,1
2619,9760,0,0,1
2620,9762,0,0,1
2621,9765,0,0,1
2622,9766,0,0,1
2623,9767,0,0,1
2624,9768,0,0,1
2625,9773,0,0,1
2626,9786,0,0,1
2627,9791,0,0,1
2628,9801,0,0,1
2629,9802,0,0,1
2630,9811,0,0,1
2631,9812,0,0,1
2632,9816,0,0,1
2633,9817,0,0,1
2634,9818,0,3,0
2635,9819,0,0,1
2636,9822,0,0,1
2637,9823,0,2,0
2638,9825,0,0,1
2639,9834,0,0,1
2640,9841,0,0,1
2641,9850,0,1,0
2642,9854,0,0,1
2643,9858,0,0,1
2644,9861,0,0,1
2645,9863,0,0,1
2646,9865,0,0,1
2647,9867,0,0,1
2648,9868,0,0,1
2649,9874,0,0,1
2650,9882,0,0,1
2651,9884,0,0,1
2652,9887,0,0,1
2653,9889,0,0,1
2654,9890,0,0,1
2655,9892,0,0,1
2656,9893,0,1,0
2657,9896,0,0,1
2658,9898,0,1,0
2659,9899,0,0,1
2660,9900,0,0,1
2661,9907,0,0,1
2662,9912,0,0,1
2663,9917,0,0,1
2664,9919,0,0,1
2665,9926,0,0,1
2666,9927,0,1,0
2667,9929,0,0,1
2668,9934,0,0,1
2669,9938,0,0,1
2670,9942,0,0,1
2671,9944,0,0,1
2672,9955,0,0,1
2673,9956,0,3,0
2674,9958,0,0,1
2675,9970,0,1,0
2676,9975,0,0,1
2677,9979,0,0,1
2678,9982,0,0,1
2679,9991,0,0,1
2680,9995,0,0,1
2681,9998,0,0,1
2682,10001,0,0,1
2683,10006,0,0,1
2684,10010,0,0,1
2685,10014,0,0,1
2686,10019,0,2,0
2687,10021,0,0,1
2688,10029,0,0,1
2689,10047,0,0,1
2690,10051,0,0,1
2691,10053,0,3,0
2692,10054,0,0,1
2693,10055,0,0,1
2694,10057,0,0,1
2695,10059,0,0,1
2696,10063,0,0,1
2697,10065,0,0,1
2698,10066,0,0,1
2699,10069,0,3,0
2700,10070,0,0,1
2701,10079,0,0,1
2702,10082,0,0,1
2703,10083,0,0,1
2704,10085,0,0,1
2705,10087,0,0,1
2706,10094,0,0,1
2707,10100,0,0,1
2708,10110,0,0,1
2709,10113,0,0,1
2710,10116,0,0,1
2711,10118,0,0,1
2712,10123,0,0,1
2713,10127,0,0,1
2714,10128,0,0,1
2715,10130,0,0,1
2716,10132,0,0,1
2717,10139,0,0,1
2718,10143,0,0,1
2719,10151,0,0,1
2720,10152,0,0,1
2721,10154,0,0,1
2722,10155,0,0,1
2723,10156,0,0,1
2724,10167,0,0,1
2725,10173,0,0,1
2726,10175,0,0,1
2727,10178,0,0,1
2728,10182,0,0,1
2729,10183,0,0,1
2730,10186,0,0,1
2731,10199,0,0,1
2732,10206,0,0,1
2733,10210,0,0,1
2734,10216,0,0,1
2735,10217,0,0,1
2736,10229,0,0,1
2737,10234,0,0,1
2738,10235,0,0,1
2739,10239,0,0,1
2740,10243,0,0,1
2741,10246,0,0,1
2742,10249,0,0,1
2743,10251,0,0,1
2744,10255,0,0,1
2745,10264,0,0,1
2746,10265,0,0,1
2747,10266,0,0,1
2748,10270,0,0,1
2749,10275,0,0,1
2750,10276,0,0,1
2751,10278,0,0,1
2752,10279,0,0,1
2753,10280,0,2,0
2754,10284,0,0,1
2755,10286,0,0,1
2756,10298,0,0,1
2757,10300,0,1,0
2758,10301,0,0,1
2759,10307,0,0,1
2760,10309,0,1,0
2761,10310,0,0,1
2762,10312,0,0,1
2763,10314,0,0,1
2764,10323,0,0,1
2765,10324,0,0,1
2766,10328,0,0,1
2767,10329,0,0,1
2768,10330,0,0,1
2769,10331,0,0,1
2770,10335,0,0,1
2771,10337,0,0,1
2772,10344,0,0,1
2773,10355,0,0,1
2774,10360,0,0,1
2775,10361,0,4,0
2776,10364,0,0,1
2777,10367,0,0,1
2778,10368,0,0,1
2779,10370,0,1,0
2780,10371,0,0,1
2781,10375,0,0,1
2782,10376,0,0,1
2783,10379,0,0,1
2784,10389,0,3,0
2785,10394,0,0,1
2786,10398,0,0,1
2787,10400,0,0,1
2788,10401,0,2,0
2789,10404,0,0,1
2790,10405,0,0,1
2791,10406,0,0,1
2792,10407,0,0,1
2793,10424,0,0,1
2794,10425,0,0,1
2795,10426,0,0,1
2796,10434,0,0,1
2797,10439,0,0,1
2798,10446,0,0,1
2799,10449,0,0,1
2800,10453,0,0,1
2801,10454,0,0,1
2802,10462,0,0,1
2803,10464,0,0,1
2804,10467,0,1,0
2805,10468,0,0,1
2806,10472,0,0,1
2807,10474,0,0,1
2808,10476,0,2,0
2809,10477,0,0,1
2810,10480,0,0,1
2811,10481,0,0,1
2812,10497,0,0,1
2813,10501,0,0,1
2814,10502,0,0,1
2815,10504,0,0,1
2816,10512,0,0,1
2817,10514,0,0,1
2818,10515,0,0,1
2819,10522,0,0,1
2820,10525,0,0,1
2821,10529,0,0,1
2822,10534,0,0,1
2823,10537,0,0,1
2824,10540,0,0,1
2825,10544,0,0,1
2826,10548,0,0,1
2827,10550,0,0,1
2828,10552,0,0,1
2829,10554,0,0,1
2830,10557,0,0,1
2831,10564,0,0,1
2832,10568,0,0,1
2833,10573,0,1,0
2834,10579,0,0,1
2835,10585,0,0,1
2836,10589,0,0,1
2837,10591,0,0,1
2838,10594,0,0,1
2839,10596,0,0,1
2840,10597,0,0,1
2841,10603,0,0,1
2842,10606,0,0,1
2843,10608,0,0,1
2844,10609,0,0,1
2845,10611,0,0,1
2846,10622,0,0,1
2847,10627,0,1,0
2848,10630,0,1,0
2849,10632,0,0,1
2850,10634,0,1,0
2851,10635,0,0,1
2852,10641,0,1,0
2853,10642,0,0,1
2854,10643,0,0,1
2855,10654,0,0,1
2856,10660,0,0,1
2857,10661,0,0,1
2858,10665,0,0,1
2859,10666,0,0,1
2860,10669,0,0,1
2861,10682,0,1,0
2862,10688,0,0,1
2863,10689,0,0,1
2864,10691,0,0,1
2865,10693,0,0,1
2866,10694,0,0,1
2867,10696,0,0,1
2868,10698,0,0,1
2869,10699,0,0,1
2870,10706,0,0,1
2871,10709,0,0,1
2872,10713,0,0,1
2873,10714,0,0,1
2874,10718,0,0,1
2875,10720,0,0,1
2876,10721,0,0,1
2877,10723,0,0,1
2878,10725,0,0,1
2879,10727,0,0,1
2880,10728,0,0,1
2881,10729,0,0,1
2882,10738,0,0,1
2883,10749,0,0,1
2884,10750,0,0,1
2885,10753,0,0,1
2886,10754,0,0,1
2887,10756,0,0,1
2888,10780,0,0,1
2889,10786,0,0,1
2890,10790,0,1,0
2891,10791,0,0,1
2892,10796,0,0,1
2893,10797,0,0,1
2894,10798,0,0,1
2895,10799,0,0,1
2896,10801,0,0,1
2897,10806,0,0,1
2898,10811,0,1,0
2899,10825,0,0,1
2900,10829,0,0,1
2901,10832,0,0,1
2902,10833,0,0,1
2903,10834,0,0,1
2904,10841,0,0,1
2905,10842,0,0,1
2906,10844,0,0,1
2907,10845,0,0,1
2908,10846,0,0,1
2909,10848,0,0,1
2910,10865,0,0,1
2911,10872,0,0,1
2912,10873,0,0,1
2913,10878,0,0,1
2914,10880,0,0,1
2915,10882,0,0,1
2916,10889,0,1,0
2917,10890,0,0,1
2918,10893,0,0,1
2919,10894,0,0,1
2920,10899,0,1,0
2921,10900,0,0,1
2922,10902,0,0,1
2923,10903,0,0,1
2924,10909,0,0,1
2925,10918,0,0,1
2926,10926,0,0,1
2927,10940,0,0,1
2928,10947,0,0,1
2929,10953,0,0,1
2930,10954,0,0,1
2931,10961,0,0,1
2932,10969,0,0,1
2933,10970,0,0,1
2934,10973,0,0,1
2935,10977,0,0,1
2936,10991,0,1,0
2937,10993,0,0,1
2938,10996,0,0,1
2939,10997,0,0,1
2940,11000,0,0,1
2941,11001,0,0,1
2942,11003,0,1,0
2943,11009,0,0,1
2944,11014,0,0,1
2945,11015,0,0,1
2946,11018,0,0,1
2947,11020,0,0,1
2948,11029,0,0,1
2949,11032,0,0,1
2950,11037,0,0,1
2951,11039,0,0,1
2952,11042,0,0,1
2953,11047,0,1,0
2954,11051,0,0,1
2955,11054,0,0,1
2956,11055,0,2,0
2957,11061,0,0,1
2958,11062,0,0,1
2959,11064,0,0,1
2960,11065,0,0,1
2961,11073,0,0,1
2962,11076,0,0,1
2963,11084,0,0,1
2964,11086,0,0,1
2965,11091,0,0,1
2966,11096,0,0,1
2967,11099,0,0,1
2968,11102,0,0,1
2969,11104,0,0,1
2970,11109,0,0,1
2971,11110,0,2,0
2972,11117,0,0,1
2973,11120,0,0,1
2974,11124,0,0,1
2975,11125,0,0,1
2976,11126,0,0,1
2977,11129,0,0,1
2978,11131,0,2,0
2979,11138,0,0,1
2980,11143,0,0,1
2981,11144,0,0,1
2982,11145,0,0,1
2983,11156,0,0,1
2984,11167,0,0,1
2985,11173,0,0,1
2986,11180,0,0,1
2987,11184,0,0,1
2988,11187,0,0,1
2989,11188,0,0,1
2990,11192,0,0,1
2991,11194,0,0,1
2992,11207,0,0,1
2993,11210,0,0,1
2994,11211,0,0,1
2995,11212,0,0,1
2996,11214,0,3,0
2997,11215,0,0,1
2998,11218,0,0,1
2999,11220,0,0,1
3000,11222,0,0,1
3001,11223,0,0,1
3002,11227,0,0,1
3003,11230,0,0,1
3004,11231,0,0,1
3005,11240,0,0,1
3006,11243,0,0,1
3007,11245,0,0,1
3008,11248,0,0,1
3009,11251,0,0,1
3010,11256,0,0,1
3011,11257,0,0,1
3012,11261,0,0,1
3013,11266,0,0,1
3014,11276,0,0,1
3015,11279,0,0,1
3016,11281,0,0,1
3017,11283,0,0,1
3018,11290,0,0,1
3019,11309,0,0,1
3020,11310,0,0,1
3021,11316,0,0,1
3022,11321,0,0,1
3023,11325,0,0,1
3024,11326,0,0,1
3025,11335,0,0,1
3026,11336,0,0,1
3027,11340,0,0,1
3028,11341,0,0,1
3029,11346,0,0,1
3030,11356,0,0,1
3031,11357,0,0,1
3032,11366,0,0,1
3033,11370,0,0,1
3034,11377,0,0,1
3035,11382,0,0,1
3036,11383,0,0,1
3037,11395,0,0,1
3038,11399,0,0,1
3039,11407,0,0,1
3040,11409,0,1,0
3041,11413,0,0,1
3042,11417,0,0,1
3043,11419,0,0,1
3044,11421,0,0,1
3045,11422,0,0,1
3046,11432,0,0,1
3047,11434,0,0,1
3048,11437,0,0,1
3049,11442,0,0,1
3050,11446,0,0,1
3051,11447,0,0,1
3052,11458,0,0,1
3053,11459,0,0,1
3054,11465,0,0,1
3055,11470,0,0,1
3056,11471,0,0,1
3057,11472,0,0,1
3058,11477,0,0,1
3059,11479,0,0,1
3060,11480,0,0,1
3061,11491,0,0,1
3062,11502,0,0,1
3063,11506,0,0,1
3064,11515,0,0,1
3065,11517,0,0,1
3066,11519,0,0,1
3067,11521,0,0,1
3068,11525,0,0,1
3069,11527,0,0,1
3070,11528,0,0,1
3071,11533,0,0,1
3072,11534,0,0,1
3073,11536,0,1,0
3074,11539,0,0,1
3075,11540,0,0,1
3076,11549,0,0,1
3077,11552,0,0,1
3078,11553,0,0,1
3079,11554,0,0,1
3080,11555,0,0,1
3081,11557,0,0,1
3082,11561,0,0,1
3083,11562,0,0,1
3084,11563,0,0,1
3085,11565,0,0,1
3086,11570,0,0,1
3087,11578,0,0,1
3088,11579,0,0,1
3089,11580,0,0,1
3090,11583,0,0,1
3091,11584,0,0,1
3092,11593,0,0,1
3093,11595,0,1,0
3094,11604,0,0,1
3095,11608,0,1,0
3096,11622,0,0,1
3097,11624,0,0,1
3098,11626,0,0,1
3099,11633,0,0,1
3100,11635,0,0,1
3101,11638,0,0,1
3102,11640,0,0,1
3103,11650,0,0,1
3104,11653,0,0,1
3105,11654,0,0,1
3106,11658,0,0,1
3107,11659,0,0,1
3108,11660,0,0,1
3109,11661,0,0,1
3110,11673,0,0,1
3111,11689,0,0,1
3112,11698,0,0,1
3113,11699,0,0,1
3114,11701,0,0,1
3115,11705,0,0,1
3116,11714,0,1,0
3117,11717,0,0,1
3118,11720,0,0,1
3119,11723,0,0,1
3120,11724,0,0,1
3121,11734,0,1,0
3122,11741,0,0,1
3123,11744,0,0,1
3124,11747,0,0,1
3125,11752,0,0,1
3126,11762,0,0,1
3127,11764,0,0,1
3128,11766,0,0,1
3129,11767,0,0,1
3130,11768,0,0,1
3131,11770,0,0,1
3132,11773,0,0,1
3133,11774,0,0,1
3134,11780,0,0,1
3135,11784,0,2,0
3136,11786,0,0,1
3137,11789,0,0,1
3138,11794,0,0,1
3139,11798,0,0,1
3140,11799,0,0,1
3141,11813,0,0,1
3142,11817,0,0,1
3143,11818,0,0,1
3144,11821,0,0,1
3145,11825,0,0,1
3146,11827,0,0,1
3147,11829,0,0,1
3148,11834,0,0,1
3149,11841,0,0,1
3150,11843,0,0,1
3151,11847,0,0,1
3152,11848,0,0,1
3153,11852,0,0,1
3154,11853,0,0,1
3155,11856,0,0,1
3156,11857,0,0,1
3157,11860,0,0,1
3158,11865,0,0,1
3159,11870,0,0,1
3160,11873,0,0,1
3161,11876,0,0,1
3162,11886,0,0,1
3163,11889,0,0,1
3164,11892,0,0,1
3165,11901,0,0,1
3166,11905,0,1,0
3167,11911,0,0,1
3168,11913,0,0,1
3169,11917,0,0,1
3170,11918,0,0,1
3171,11919,0,2,0
3172,11920,0,0,1
3173,11928,0,0,1
3174,11929,0,0,1
3175,11931,0,0,1
3176,11935,0,0,1
3177,11943,0,1,0
3178,11945,0,0,1
3179,11947,0,0,1
3180,11951,0,1,0
3181,11954,0,0,1
3182,11956,0,0,1
3183,11961,0,0,1
3184,11963,0,0,1
3185,11964,0,0,1
3186,11967,0,0,1
3187,11975,0,0,1
3188,11982,0,0,1
3189,11983,0,0,1
3190,11993,0,0,1
3191,11998,0,0,1
3192,12003,0,0,1
3193,12004,0,0,1
3194,12006,0,0,1
3195,12007,0,0,1
3196,12009,0,0,1
3197,12011,0,0,1
3198,12025,0,0,1
3199,12032,0,0,1
3200,12034,0,0,1
3201,12037,0,1,0
3202,12042,0,0,1
3203,12050,0,0,1
3204,12052,0,0,1
3205,12057,0,0,1
3206,12064,0,0,1
3207,12072,0,0,1
3208,12078,0,0,1
3209,12080,0,0,1
3210,12081,0,0,1
3211,12084,0,1,0
3212,12087,0,0,1
3213,12090,0,0,1
3214,12092,0,0,1
3215,12101,0,0,1
3216,12106,0,0,1
3217,12108,0,0,1
3218,12109,0,0,1
3219,12119,0,0,1
3220,12120,0,0,1
3221,12121,0,0,1
3222,12123,0,0,1
3223,12126,0,0,1
3224,12127,0,0,1
3225,12130,0,0,1
3226,12132,0,0,1
3227,12139,0,0,1
3228,12143,0,0,1
3229,12144,0,0,1
3230,12147,0,0,1
3231,12150,0,0,1
3232,12151,0,0,1
3233,12160,0,0,1
3234,12161,0,0,1
3235,12162,0,0,1
3236,12164,0,0,1
3237,12165,0,1,0
3238,12171,0,0,1
3239,12172,0,0,1
3240,12173,0,0,1
3241,12176,0,0,1
3242,12177,0,0,1
3243,12180,0,0,1
3244,12183,0,0,1
3245,12191,0,0,1
3246,12201,0,0,1
3247,12206,0,0,1
3248,12208,0,0,1
3249,12216,0,0,1
3250,12224,0,0,1
3251,12227,0,0,1
3252,12230,0,0,1
3253,12233,0,0,1
3254,12234,0,0,1
3255,12235,0,0,1
3256,12236,0,0,1
3257,12238,0,0,1
3258,12243,0,0,1
3259,12246,0,0,1
3260,12249,0,0,1
3261,12258,0,0,1
3262,12263,0,0,1
3263,12265,0,1,0
3264,12266,0,0,1
3265,12271,0,0,1
3266,12273,0,0,1
3267,12274,0,0,1
3268,12278,0,0,1
3269,12281,0,0,1
3270,12284,0,0,1
3271,12285,0,0,1
3272,12290,0,0,1
3273,12291,0,0,1
3274,12292,0,0,1
3275,12296,0,0,1
3276,12298,0,0,1
3277,12299,0,0,1
3278,12314,0,0,1
3279,12315,0,0,1
3280,12343,0,0,1
3281,12348,0,0,1
3282,12351,0,1,0
3283,12363,0,0,1
3284,12364,0,0,1
3285,12376,0,0,1
3286,12377,0,0,1
3287,12378,0,0,1
3288,12379,0,0,1
3289,12380,0,1,0
3290,12385,0,1,0
3291,12386,0,0,1
3292,12387,0,0,1
3293,12388,0,0,1
3294,12389,0,0,1
3295,12392,0,0,1
3296,12393,0,0,1
3297,12397,0,0,1
3298,12405,0,0,1
3299,12406,0,0,1
3300,12407,0,0,1
3301,12409,0,0,1
3302,12412,0,0,1
3303,12419,0,0,1
3304,12424,0,1,0
3305,12425,0,2,0
3306,12427,0,0,1
3307,12428,0,0,1
3308,12437,0,0,1
3309,12441,0,0,1
3310,12442,0,0,1
3311,12445,0,1,0
3312,12451,0,0,1
3313,12458,0,0,1
3314,12459,0,0,1
3315,12460,0,0,1
3316,12464,0,0,1
3317,12477,0,1,0
3318,12489,0,0,1
3319,12494,0,0,1
3320,12497,0,0,1
3321,12502,0,1,0
3322,12513,0,0,1
3323,12515,0,0,1
3324,12516,0,0,1
3325,12526,0,3,0
3326,12527,0,0,1
3327,12532,0,0,1
3328,12535,0,0,1
3329,12537,0,0,1
3330,12548,0,0,1
3331,12552,0,0,1
3332,12553,0,0,1
3333,12554,0,0,1
3334,12557,0,0,1
3335,12559,0,0,1
3336,12560,0,0,1
3337,12562,0,0,1
3338,12569,0,0,1
3339,12571,0,0,1
3340,12572,0,0,1
3341,12577,0,0,1
3342,12583,0,0,1
3343,12588,0,0,1
3344,12598,0,0,1
3345,12606,0,0,1
3346,12607,0,0,1
3347,12613,0,0,1
3348,12618,0,0,1
3349,12619,0,0,1
3350,12621,0,0,1
3351,12626,0,0,1
3352,12629,0,0,1
3353,12633,0,0,1
3354,12639,0,1,0
3355,12642,0,0,1
3356,12657,0,0,1
3357,12662,0,2,0
3358,12665,0,0,1
3359,12667,0,0,1
3360,12671,0,0,1
3361,12673,0,0,1
3362,12678,0,0,1
3363,12679,0,0,1
3364,12688,0,0,1
3365,12689,0,0,1
3366,12690,0,0,1
3367,12692,0,0,1
3368,12695,0,0,1
3369,12704,0,0,1
3370,12714,0,0,1
3371,12719,0,0,1
3372,12732,0,0,1
3373,12735,0,0,1
3374,12736,0,0,1
3375,12737,0,0,1
3376,12740,0,0,1
3377,12741,0,0,1
3378,12742,0,0,1
3379,12745,0,0,1
3380,12747,0,1,0
3381,12750,0,0,1
3382,12752,0,0,1
3383,12757,0,0,1
3384,12762,0,0,1
3385,12766,0,0,1
3386,12768,0,0,1
3387,12769,0,0,1
3388,12772,0,0,1
3389,12774,0,0,1
3390,12781,0,0,1
3391,12783,0,0,1
3392,12789,0,0,1
3393,12793,0,0,1
3394,12797,0,0,1
3395,12800,0,0,1
3396,12801,0,0,1
3397,12803,0,0,1
3398,12805,0,0,1
3399,12807,0,0,1
3400,12814,0,0,1
3401,12819,0,0,1
3402,12820,0,0,1
3403,12821,0,0,1
3404,12840,0,0,1
3405,12843,0,0,1
3406,12845,0,0,1
3407,12852,0,0,1
3408,12853,0,1,0
3409,12866,0,0,1
3410,12867,0,0,1
3411,12873,0,0,1
3412,12876,0,0,1
3413,12878,0,1,0
3414,12886,0,0,1
3415,12888,0,0,1
3416,12897,0,0,1
3417,12902,0,0,1
3418,12904,0,0,1
3419,12905,0,0,1
3420,12908,0,0,1
3421,12913,0,0,1
3422,12921,0,0,1
3423,12923,0,1,0
3424,12925,0,1,0
3425,12928,0,0,1
3426,12929,0,0,1
3427,12930,0,0,1
3428,12934,0,0,1
3429,12940,0,0,1
3430,12941,0,0,1
3431,12942,0,0,1
3432,12944,0,0,1
3433,12946,0,0,1
3434,12947,0,0,1
3435,12949,0,0,1
3436,12953,0,0,1
3437,12954,0,0,1
3438,12959,0,0,1
3439,12963,0,0,1
3440,12966,0,0,1
3441,12971,0,0,1
3442,12983,0,0,1
3443,12985,0,0,1
3444,12995,0,1,0
3445,12998,0,0,1
3446,12999,0,0,1
3447,13007,0,0,1
3448,13010,0,0,1
3449,13011,0,0,1
3450,13020,0,0,1
3451,13028,0,0,1
3452,13033,0,0,1
3453,13043,0,0,1
3454,13049,0,0,1
3455,13055,0,0,1
3456,13059,0,0,1
3457,13064,0,0,1
3458,13065,0,1,0
3459,13074,0,0,1
3460,13080,0,0,1
3461,13082,0,0,1
3462,13095,0,0,1
3463,13096,0,0,1
3464,13099,0,0,1
3465,13100,0,0,1
3466,13104,0,0,1
3467,13108,0,0,1
3468,13111,0,0,1
3469,13112,0,0,1
3470,13116,0,0,1
3471,13121,0,0,1
3472,13122,0,0,1
3473,13125,0,1,0
3474,13127,0,0,1
3475,13140,0,2,0
3476,13145,0,0,1
3477,13147,0,0,1
3478,13148,0,0,1
3479,13150,0,0,1
3480,13152,0,0,1
3481,13161,0,0,1
3482,13163,0,0,1
3483,13165,0,0,1
3484,13172,0,0,1
3485,13177,0,1,0
3486,13178,0,0,1
3487,13184,0,0,1
3488,13187,0,0,1
3489,13192,0,0,1
3490,13193,0,0,1
3491,13196,0,0,1
3492,13198,0,0,1
3493,13207,0,0,1
3494,13208,0,0,1
3495,13210,0,0,1
3496,13211,0,0,1
3497,13216,0,0,1
3498,13219,0,0,1
3499,13223,0,0,1
3500,13229,0,0,1
3501,13230,0,0,1
3502,13231,0,0,1
3503,13232,0,0,1
3504,13233,0,0,1
3505,13240,0,0,1
3506,13241,0,0,1
3507,13252,0,0,1
3508,13253,0,0,1
3509,13256,0,0,1
3510,13260,0,0,1
3511,13262,0,1,0
3512,13266,0,0,1
3513,13273,0,0,1
3514,13274,0,0,1
3515,13278,0,0,1
3516,13282,0,0,1
3517,13291,0,0,1
3518,13292,0,0,1
3519,13294,0,0,1
3520,13295,0,0,1
3521,13296,0,0,1
3522,13297,0,0,1
3523,13310,0,0,1
3524,13315,0,0,1
3525,13316,0,0,1
3526,13325,0,0,1
3527,13341,0,0,1
3528,13349,0,0,1
3529,13352,0,0,1
3530,13354,0,0,1
3531,13355,0,0,1
3532,13366,0,0,1
3533,13369,0,0,1
3534,13374,0,0,1
3535,13383,0,0,1
3536,13390,0,0,1
3537,13393,0,0,1
3538,13394,0,0,1
3539,13397,0,0,1
3540,13401,0,0,1
3541,13404,0,0,1
3542,13407,0,0,1
3543,13409,0,0,1
3544,13410,0,0,1
3545,13418,0,0,1
3546,13424,0,0,1
3547,13425,0,0,1
3548,13428,0,0,1
3549,13429,0,0,1
3550,13446,0,0,1
3551,13447,0,0,1
3552,13454,0,0,1
3553,13456,0,0,1
3554,13457,0,0,1
3555,13461,0,0,1
3556,13462,0,0,1
3557,13466,0,0,1
3558,13471,0,0,1
3559,13479,0,0,1
3560,13484,0,0,1
3561,13485,0,0,1
3562,13488,0,0,1
3563,13491,0,0,1
3564,13494,0,0,1
3565,13499,0,0,1
3566,13500,0,0,1
3567,13524,0,0,1
3568,13528,0,0,1
3569,13529,0,0,1
3570,13531,0,0,1
3571,13533,0,0,1
3572,13535,0,0,1
3573,13539,0,0,1
3574,13541,0,0,1
3575,13542,0,0,1
3576,13544,0,0,1
3577,13548,0,0,1
3578,13549,0,0,1
3579,13550,0,0,1
3580,13551,0,1,0
3581,13560,0,0,1
3582,13563,0,0,1
3583,13565,0,0,1
3584,13572,0,0,1
3585,13578,0,0,1
3586,13584,0,0,1
3587,13588,0,0,1
3588,13589,0,0,1
3589,13590,0,0,1
3590,13591,0,0,1
3591,13595,0,0,1
3592,13600,0,0,1
3593,13605,0,0,1
3594,13607,0,0,1
3595,13610,0,0,1
3596,13612,0,0,1
3597,13616,0,0,1
3598,13619,0,0,1
3599,13621,0,0,1
3600,13623,0,0,1
3601,13626,0,0,1
3602,13627,0,0,1
3603,13629,0,0,1
3604,13631,0,0,1
3605,13636,0,0,1
3606,13638,0,0,1
3607,13639,0,0,1
3608,13640,0,0,1
3609,13645,0,0,1
3610,13646,0,0,1
3611,13651,0,0,1
3612,13653,0,0,1
3613,13655,0,0,1
3614,13657,0,0,1
3615,13662,0,0,1
3616,13666,0,0,1
3617,13667,0,0,1
3618,13670,0,0,1
3619,13673,0,0,1
3620,13677,0,0,1
3621,13683,0,0,1
3622,13684,0,0,1
3623,13685,0,0,1
3624,13689,0,0,1
3625,13690,0,0,1
3626,13693,0,0,1
3627,13696,0,0,1
3628,13705,0,0,1
3629,13707,0,0,1
3630,13711,0,0,1
3631,13714,0,0,1
3632,13716,0,0,1
3633,13717,0,0,1
3634,13720,0,0,1
3635,13722,0,0,1
3636,13725,0,0,1
3637,13729,0,0,1
3638,13733,0,0,1
3639,13738,0,0,1
3640,13739,0,0,1
3641,13743,0,0,1
3642,13751,0,0,1
3643,13755,0,0,1
3644,13756,0,0,1
3645,13758,0,0,1
3646,13767,0,0,1
3647,13772,0,0,1
3648,13775,0,0,1
3649,13778,0,0,1
3650,13781,0,0,1
3651,13785,0,1,0
3652,13791,0,0,1
3653,13794,0,0,1
3654,13799,0,0,1
3655,13803,0,1,0
3656,13804,0,0,1
3657,13805,0,0,1
3658,13813,0,0,1
3659,13818,0,0,1
3660,13824,0,0,1
3661,13835,0,0,1
3662,13839,0,0,1
3663,13841,0,1,0
3664,13844,0,0,1
3665,13849,0,0,1
3666,13851,0,1,0
3667,13853,0,0,1
3668,13855,0,0,1
3669,13856,0,0,1
3670,13858,0,0,1
3671,13859,0,0,1
3672,13867,0,0,1
3673,13869,0,0,1
3674,13871,0,0,1
3675,13872,0,1,0
3676,13878,0,0,1
3677,13880,0,0,1
3678,13885,0,0,1
3679,13896,0,0,1
3680,13897,0,1,0
3681,13900,0,0,1
3682,13902,0,0,1
3683,13910,0,0,1
3684,13913,0,0,1
3685,13919,0,0,1
3686,13921,0,0,1
3687,13926,0,0,1
3688,13930,0,0,1
3689,13932,0,0,1
3690,13935,0,0,1
3691,13936,0,0,1
3692,13937,0,2,0
3693,13941,0,3,0
3694,13945,0,0,1
3695,13948,0,1,0
3696,13949,0,0,1
3697,13954,0,0,1
3698,13959,0,0,1
3699,13961,0,0,1
3700,13963,0,0,1
3701,13964,0,0,1
3702,13968,0,0,1
3703,13972,0,0,1
3704,13973,0,0,1
3705,13979,0,0,1
3706,13980,0,0,1
3707,13987,0,0,1
3708,13989,0,0,1
3709,13990,0,0,1
3710,13991,0,0,1
3711,13993,0,0,1
3712,13994,0,0,1
3713,13995,0,0,1
3714,14003,0,0,1
3715,14005,0,0,1
3716,14007,0,0,1
3717,14011,0,0,1
3718,14012,0,0,1
3719,14020,0,0,1
3720,14025,0,0,1
3721,14032,0,0,1
3722,14035,0,0,1
3723,14043,0,0,1
3724,14047,0,0,1
3725,14052,0,0,1
3726,14057,0,0,1
3727,14059,0,0,1
3728,14062,0,0,1
3729,14063,0,0,1
3730,14077,0,0,1
3731,14079,0,0,1
3732,14081,0,0,1
3733,14088,0,0,1
3734,14090,0,0,1
3735,14093,0,0,1
3736,14098,0,0,1
3737,14114,0,0,1
3738,14116,0,0,1
3739,14125,0,0,1
3740,14127,0,0,1
3741,14135,0,0,1
3742,14137,0,0,1
3743,14138,0,0,1
3744,14139,0,0,1
3745,14155,0,0,1
3746,14170,0,0,1
3747,14173,0,0,1
3748,14181,0,0,1
3749,14183,0,0,1
3750,14184,0,2,0
3751,14192,0,0,1
3752,14196,0,0,1
3753,14203,0,0,1
3754,14207,0,1,0
3755,14211,0,0,1
3756,14215,0,0,1
3757,14216,0,0,1
3758,14219,0,0,1
3759,14221,0,0,1
3760,14227,0,0,1
3761,14230,0,0,1
3762,14231,0,0,1
3763,14236,0,0,1
3764,14248,0,0,1
3765,14253,0,0,1
3766,14257,0,0,1
3767,14260,0,0,1
3768,14262,0,0,1
3769,14264,0,0,1
3770,14268,0,0,1
3771,14270,0,0,1
3772,14273,0,0,1
3773,14275,0,0,1
3774,14283,0,0,1
3775,14285,0,0,1
3776,14287,0,0,1
3777,14297,0,0,1
3778,14298,0,0,1
3779,14302,0,0,1
3780,14308,0,0,1
3781,14309,0,0,1
3782,14310,0,0,1
3783,14312,0,0,1
3784,14313,0,0,1
3785,14314,0,0,1
3786,14319,0,0,1
3787,14321,0,0,1
3788,14324,0,0,1
3789,14325,0,0,1
3790,14329,0,0,1
3791,14332,0,0,1
3792,14339,0,0,1
3793,14341,0,0,1
3794,14350,0,0,1
3795,14352,0,0,1
3796,14355,0,0,1
3797,14358,0,0,1
3798,14360,0,0,1
3799,14365,0,0,1
3800,14373,0,0,1
3801,14374,0,0,1
3802,14377,0,0,1
3803,14378,0,0,1
3804,14382,0,0,1
3805,14388,0,0,1
3806,14394,0,0,1
3807,14397,0,0,1
3808,14401,0,0,1
3809,14404,0,1,0
3810,14412,0,0,1
3811,14413,0,0,1
3812,14415,0,0,1
3813,14417,0,0,1
3814,14420,0,0,1
3815,14423,0,1,0
3816,14428,0,0,1
3817,14431,0,0,1
3818,14440,0,0,1
3819,14443,0,0,1
3820,14444,0,0,1
3821,14446,0,0,1
3822,14448,0,0,1
3823,14454,0,0,1
3824,14457,0,0,1
3825,14461,0,0,1
3826,14463,0,0,1
3827,14468,0,0,1
3828,14471,0,0,1
3829,14477,0,0,1
3830,14492,0,1,0
3831,14493,0,0,1
3832,14504,0,0,1
3833,14517,0,0,1
3834,14520,0,0,1
3835,14523,0,0,1
3836,14531,0,0,1
3837,14536,0,0,1
3838,14539,0,0,1
3839,14542,0,0,1
3840,14543,0,0,1
3841,14545,0,0,1
3842,14547,0,0,1
3843,14553,0,0,1
3844,14562,0,0,1
3845,14567,0,0,1
3846,14572,0,0,1
3847,14574,0,0,1
3848,14578,0,0,1
3849,14586,0,0,1
3850,14587,0,0,1
3851,14591,0,0,1
3852,14593,0,0,1
3853,14597,0,0,1
3854,14600,0,1,0
3855,14606,0,0,1
3856,14617,0,0,1
3857,14631,0,0,1
3858,14644,0,0,1
3859,14648,0,0,1
3860,14649,0,0,1
3861,14653,0,0,1
3862,14660,0,0,1
3863,14676,0,0,1
3864,14677,0,0,1
3865,14698,0,0,1
3866,14699,0,0,1
3867,14702,0,0,1
3868,14706,0,0,1
3869,14711,0,0,1
3870,14712,0,0,1
3871,14716,0,1,0
3872,14718,0,0,1
3873,14722,0,1,0
3874,14723,0,0,1
3875,14730,0,0,1
3876,14741,0,0,1
3877,14747,0,0,1
3878,14748,0,0,1
3879,14752,0,0,1
3880,14753,0,0,1
3881,14755,0,0,1
3882,14758,0,0,1
3883,14761,0,0,1
3884,14776,0,0,1
3885,14787,0,0,1
3886,14794,0,0,1
3887,14800,0,0,1
3888,14804,0,1,0
3889,14808,0,0,1
3890,14816,0,0,1
3891,14818,0,0,1
3892,14821,0,0,1
3893,14831,0,2,0
3894,14832,0,0,1
3895,14836,0,0,1
3896,14838,0,0,1
3897,14840,0,0,1
3898,14842,0,0,1
3899,14846,0,0,1
3900,14850,0,0,1
3901,14852,0,1,0
3902,14854,0,0,1
3903,14859,0,0,1
3904,14861,0,0,1
3905,14864,0,0,1
3906,14865,0,0,1
3907,14870,0,0,1
3908,14883,0,0,1
3909,14884,0,0,1
3910,14885,0,0,1
3911,14888,0,0,1
3912,14894,0,0,1
3913,14897,0,0,1
3914,14901,0,0,1
3915,14902,0,0,1
3916,14904,0,0,1
3917,14906,0,3,0
3918,14909,0,0,1
3919,14910,0,0,1
3920,14917,0,0,1
3921,14927,0,0,1
3922,14928,0,0,1
3923,14929,0,0,1
3924,14930,0,0,1
3925,14934,0,0,1
3926,14936,0,0,1
3927,14941,0,0,1
3928,14942,0,0,1
3929,14945,0,0,1
3930,14949,0,0,1
3931,14951,0,0,1
3932,14956,0,0,1
3933,14957,0,0,1
3934,14965,0,0,1
3935,14966,0,0,1
3936,14971,0,0,1
3937,14972,0,0,1
3938,14977,0,0,1
3939,14980,0,0,1
3940,14983,0,0,1
3941,14986,0,1,0
3942,14991,0,0,1
3943,15005,0,0,1
3944,15017,0,0,1
3945,15029,0,0,1
3946,15030,0,0,1
3947,15036,0,1,0
3948,15037,0,0,1
3949,15039,0,0,1
3950,15056,0,0,1
3951,15059,0,0,1
3952,15060,0,0,1
3953,15063,0,0,1
3954,15064,0,0,1
3955,15066,0,3,0
3956,15067,0,0,1
3957,15072,0,0,1
3958,15075,0,0,1
3959,15076,0,0,1
3960,15082,0,0,1
3961,15089,0,0,1
3962,15094,0,0,1
3963,15098,0,0,1
3964,15101,0,0,1
3965,15107,0,0,1
3966,15108,0,0,1
3967,15112,0,0,1
3968,15113,0,0,1
3969,15116,0,0,1
3970,15129,0,0,1
3971,15134,0,0,1
3972,15136,0,0,1
3973,15137,0,0,1
3974,15147,0,0,1
3975,15148,0,0,1
3976,15150,0,0,1
3977,15156,0,0,1
3978,15168,0,0,1
3979,15178,0,0,1
3980,15181,0,0,1
3981,15182,0,0,1
3982,15183,0,0,1
3983,15184,0,0,1
3984,15185,0,0,1
3985,15189,0,0,1
3986,15193,0,0,1
3987,15199,0,0,1
3988,15200,0,0,1
3989,15201,0,0,1
3990,15204,0,0,1
3991,15205,0,0,1
3992,15208,0,0,1
3993,15209,0,0,1
3994,15210,0,0,1
3995,15215,0,0,1
3996,15234,0,0,1
3997,15235,0,0,1
3998,15239,0,0,1
3999,15240,0,0,1
4000,15244,0,0,1
4001,15250,0,0,1
4002,15252,0,0,1
4003,15255,0,0,1
4004,15262,0,0,1
4005,15272,0,0,1
4006,15277,0,0,1
4007,15278,0,0,1
4008,15284,0,0,1
4009,15285,0,0,1
4010,15287,0,0,1
4011,15288,0,0,1
4012,15292,0,0,1
4013,15296,0,0,1
4014,15304,0,0,1
4015,15307,0,0,1
4016,15309,0,1,0
4017,15313,0,1,0
4018,15315,0,0,1
4019,15316,0,0,1
4020,15319,0,0,1
4021,15323,0,0,1
4022,15327,0,0,1
4023,15331,0,0,1
4024,15335,0,0,1
4025,15336,0,0,1
4026,15342,0,0,1
4027,15349,0,0,1
4028,15350,0,0,1
4029,15353,0,0,1
4030,15365,0,0,1
4031,15368,0,0,1
4032,15369,0,0,1
4033,15370,0,0,1
4034,15372,0,0,1
4035,15373,0,0,1
4036,15398,0,0,1
4037,15403,0,0,1
4038,15404,0,0,1
4039,15406,0,1,0
4040,15407,0,0,1
4041,15409,0,0,1
4042,15410,0,0,1
4043,15411,0,0,1
4044,15417,0,0,1
4045,15418,0,0,1
4046,15419,0,0,1
4047,15421,0,0,1
4048,15424,0,0,1
4049,15426,0,0,1
4050,15427,0,0,1
4051,15430,0,0,1
4052,15431,0,0,1
4053,15438,0,0,1
4054,15439,0,1,0
4055,15440,0,0,1
4056,15445,0,0,1
4057,15451,0,0,1
4058,15463,0,0,1
4059,15467,0,0,1
4060,15471,0,0,1
4061,15478,0,0,1
4062,15480,0,0,1
4063,15485,0,0,1
4064,15492,0,0,1
4065,15494,0,3,0
4066,15499,0,1,0
4067,15501,0,0,1
4068,15510,0,0,1
4069,15512,0,0,1
4070,15514,0,0,1
4071,15515,0,0,1
4072,15521,0,0,1
4073,15528,0,0,1
4074,15530,0,0,1
4075,15540,0,0,1
4076,15542,0,0,1
4077,15545,0,0,1
4078,15546,0,0,1
4079,15551,0,0,1
4080,15553,0,0,1
4081,15555,0,0,1
4082,15557,0,1,0
4083,15558,0,0,1
4084,15563,0,0,1
4085,15564,0,0,1
4086,15568,0,0,1
4087,15569,0,0,1
4088,15570,0,0,1
4089,15574,0,0,1
4090,15578,0,0,1
4091,15586,0,2,0
4092,15587,0,0,1
4093,15588,0,1,0
4094,15589,0,0,1
4095,15594,0,0,1
4096,15595,0,0,1
4097,15597,0,0,1
4098,15600,0,0,1
4099,15605,0,0,1
4100,15609,0,0,1
4101,15612,0,0,1
4102,15618,0,0,1
4103,15621,0,0,1
4104,15625,0,0,1
4105,15626,0,0,1
4106,15629,0,0,1
4107,15634,0,0,1
4108,15635,0,0,1
4109,15637,0,0,1
4110,15640,0,0,1
4111,15642,0,0,1
4112,15643,0,0,1
4113,15647,0,0,1
4114,15652,0,0,1
4115,15655,0,0,1
4116,15657,0,0,1
4117,15660,0,0,1
4118,15661,0,0,1
4119,15671,0,0,1
4120,15672,0,0,1
4121,15673,0,0,1
4122,15675,0,0,1
4123,15678,0,0,1
4124,15681,0,0,1
4125,15689,0,0,1
4126,15693,0,0,1
4127,15696,0,1,0
4128,15703,0,0,1
4129,15708,0,0,1
4130,15714,0,0,1
4131,15721,0,0,1
4132,15722,0,0,1
4133,15728,0,0,1
4134,15733,0,0,1
4135,15738,0,0,1
4136,15739,0,0,1
4137,15740,0,0,1
4138,15741,0,0,1
4139,15750,0,0,1
4140,15759,0,0,1
4141,15760,0,0,1
4142,15767,0,0,1
4143,15768,0,0,1
4144,15771,0,0,1
4145,15780,0,0,1
4146,15782,0,0,1
4147,15785,0,0,1
4148,15786,0,0,1
4149,15788,0,0,1
4150,15789,0,0,1
4151,15791,0,2,0
4152,15795,0,0,1
4153,15800,0,0,1
4154,15823,0,0,1
4155,15828,0,0,1
4156,15836,0,0,1
4157,15844,0,0,1
4158,15845,0,0,1
4159,15848,0,0,1
4160,15850,0,0,1
4161,15858,0,0,1
4162,15866,0,0,1
4163,15867,0,0,1
4164,15883,0,0,1
4165,15894,0,1,0
4166,15895,0,0,1
4167,15898,0,0,1
4168,15902,0,0,1
4169,15906,0,0,1
4170,15910,0,0,1
4171,15913,0,0,1
4172,15918,0,0,1
4173,15925,0,0,1
4174,15928,0,0,1
4175,15930,0,0,1
4176,15939,0,0,1
4177,15940,0,0,1
4178,15941,0,0,1
4179,15945,0,0,1
4180,15947,0,0,1
4181,15950,0,0,1
4182,15956,0,0,1
4183,15961,0,0,1
4184,15962,0,0,1
4185,15963,0,0,1
4186,15966,0,0,1
4187,15968,0,0,1
4188,15972,0,0,1
4189,15973,0,0,1
4190,15975,0,0,1
4191,15976,0,0,1
4192,15985,0,0,1
4193,15986,0,0,1
4194,15988,0,0,1
4195,15995,0,0,1
4196,16005,0,0,1
4197,16008,0,0,1
4198,16009,0,0,1
4199,16023,0,0,1
4200,16025,0,0,1
4201,16028,0,0,1
4202,16033,0,0,1
4203,16043,0,0,1
4204,16047,0,0,1
4205,16057,0,0,1
4206,16065,0,0,1
4207,16066,0,0,1
4208,16068,0,0,1
4209,16074,0,0,1
4210,16078,0,0,1
4211,16080,0,0,1
4212,16082,0,1,0
4213,16083,0,0,1
4214,16086,0,0,1
4215,16097,0,0,1
4216,16102,0,0,1
4217,16123,0,0,1
4218,16126,0,0,1
4219,16128,0,0,1
4220,16129,0,0,1
4221,16131,0,0,1
4222,16132,0,1,0
4223,16134,0,0,1
4224,16136,0,0,1
4225,16139,0,2,0
4226,16141,0,0,1
4227,16144,0,0,1
4228,16146,0,0,1
4229,16153,0,0,1
4230,16161,0,0,1
4231,16168,0,0,1
4232,16171,0,0,1
4233,16174,0,0,1
4234,16179,0,0,1
4235,16182,0,0,1
4236,16190,0,0,1
4237,16193,0,1,0
4238,16195,0,0,1
4239,16196,0,2,0
4240,16197,0,0,1
4241,16199,0,0,1
4242,16203,0,0,1
4243,16211,0,0,1
4244,16216,0,0,1
4245,16225,0,0,1
4246,16227,0,0,1
4247,16228,0,0,1
4248,16235,0,0,1
4249,16242,0,0,1
4250,16244,0,0,1
4251,16249,0,0,1
4252,16250,0,0,1
4253,16251,0,0,1
4254,16252,0,0,1
4255,16254,0,0,1
4256,16256,0,0,1
4257,16258,0,0,1
4258,16261,0,0,1
4259,16263,0,0,1
4260,16264,0,0,1
4261,16270,0,0,1
4262,16272,0,3,0
4263,16274,0,0,1
4264,16279,0,0,1
4265,16280,0,0,1
4266,16287,0,0,1
4267,16291,0,0,1
4268,16292,0,0,1
4269,16294,0,0,1
4270,16297,0,0,1
4271,16299,0,2,0
4272,16301,0,0,1
4273,16302,0,0,1
4274,16304,0,0,1
4275,16308,0,0,1
4276,16309,0,1,0
4277,16312,0,0,1
4278,16314,0,0,1
4279,16320,0,0,1
4280,16323,0,0,1
4281,16324,0,0,1
4282,16330,0,0,1
4283,16331,0,0,1
4284,16335,0,0,1
4285,16338,0,0,1
4286,16340,0,0,1
4287,16344,0,0,1
4288,16345,0,0,1
4289,16350,0,0,1
4290,16354,0,0,1
4291,16355,0,0,1
4292,16357,0,0,1
4293,16363,0,0,1
4294,16364,0,0,1
4295,16366,0,0,1
4296,16372,0,0,1
4297,16373,0,0,1
4298,16377,0,0,1
4299,16379,0,0,1
4300,16381,0,0,1
4301,16384,0,0,1
4302,16387,0,0,1
4303,16390,0,0,1
4304,16391,0,0,1
4305,16392,0,0,1
4306,16393,0,0,1
4307,16396,0,0,1
4308,16401,0,0,1
4309,16402,0,0,1
4310,16404,0,0,1
4311,16406,0,0,1
4312,16407,0,1,0
4313,16411,0,0,1
4314,16416,0,0,1
4315,16422,0,0,1
4316,16429,0,0,1
4317,16432,0,0,1
4318,16434,0,0,1
4319,16444,0,0,1
4320,16448,0,0,1
4321,16450,0,0,1
4322,16451,0,2,0
4323,16452,0,0,1
4324,16453,0,0,1
4325,16459,0,0,1
4326,16462,0,0,1
4327,16467,0,0,1
4328,16474,0,1,0
4329,16479,0,0,1
4330,16480,0,0,1
4331,16482,0,0,1
4332,16483,0,1,0
4333,16486,0,0,1
4334,16488,0,0,1
4335,16507,0,0,1
4336,16516,0,0,1
4337,16522,0,0,1
4338,16526,0,0,1
4339,16529,0,0,1
4340,16531,0,0,1
4341,16532,0,0,1
4342,16534,0,0,1
4343,16536,0,0,1
4344,16538,0,0,1
4345,16542,0,0,1
4346,16548,0,0,1
4347,16557,0,0,1
4348,16561,0,0,1
4349,16565,0,0,1
4350,16567,0,0,1
4351,16568,0,0,1
4352,16573,0,1,0
4353,16589,0,0,1
4354,16598,0,0,1
4355,16605,0,0,1
4356,16609,0,0,1
4357,16625,0,0,1
4358,16626,0,0,1
4359,16631,0,0,1
4360,16633,0,0,1
4361,16643,0,0,1
4362,16650,0,0,1
4363,16656,0,0,1
4364,16657,0,0,1
4365,16662,0,0,1
4366,16663,0,0,1
4367,16665,0,0,1
4368,16667,0,0,1
4369,16669,0,1,0
4370,16673,0,3,0
4371,16674,0,0,1
4372,16683,0,0,1
4373,16684,0,0,1
4374,16686,0,0,1
4375,16688,0,1,0
4376,16689,0,0,1
4377,16692,0,0,1
4378,16703,0,1,0
4379,16705,0,0,1
4380,16708,0,1,0
4381,16710,0,0,1
4382,16712,0,0,1
4383,16713,0,0,1
4384,16727,0,0,1
4385,16728,0,0,1
4386,16730,0,1,0
4387,16732,0,0,1
4388,16733,0,3,0
4389,16734,0,0,1
4390,16738,0,0,1
4391,16741,0,0,1
4392,16745,0,0,1
4393,16751,0,0,1
4394,16756,0,0,1
4395,16758,0,0,1
4396,16761,0,0,1
4397,16767,0,0,1
4398,16769,0,0,1
4399,16774,0,0,1
4400,16777,0,0,1
4401,16783,0,0,1
4402,16785,0,0,1
4403,16788,0,0,1
4404,16798,0,0,1
4405,16801,0,0,1
4406,16803,0,0,1
4407,16809,0,0,1
4408,16811,0,0,1
4409,16813,0,0,1
4410,16818,0,0,1
4411,16827,0,1,0
4412,16830,0,0,1
4413,16832,0,0,1
4414,16835,0,0,1
4415,16838,0,0,1
4416,16840,0,0,1
4417,16846,0,0,1
4418,16848,0,0,1
4419,16849,0,0,1
4420,16853,0,1,0
4421,16854,0,0,1
4422,16858,0,3,0
4423,16868,0,0,1
4424,16877,0,0,1
4425,16883,0,0,1
4426,16884,0,0,1
4427,16887,0,0,1
4428,16902,0,0,1
4429,16904,0,0,1
4430,16905,0,0,1
4431,16911,0,0,1
4432,16919,0,0,1
4433,16923,0,0,1
4434,16926,0,0,1
4435,16929,0,0,1
4436,16930,0,0,1
4437,16934,0,0,1
4438,16938,0,0,1
4439,16947,0,0,1
4440,16951,0,0,1
4441,16952,0,0,1
4442,16953,0,0,1
4443,16954,0,0,1
4444,16957,0,0,1
4445,16960,0,0,1
4446,16965,0,0,1
4447,16977,0,0,1
4448,16986,0,0,1
4449,16988,0,0,1
4450,16991,0,0,1
4451,16993,0,0,1
4452,16995,0,0,1
4453,16999,0,0,1
4454,17011,0,0,1
4455,17020,0,0,1
4456,17022,0,0,1
4457,17029,0,0,1
4458,17032,0,0,1
4459,17034,0,0,1
4460,17036,0,0,1
4461,17043,0,0,1
4462,17045,0,0,1
4463,17048,0,0,1
4464,17054,0,0,1
4465,17055,0,0,1
4466,17059,0,0,1
4467,17061,0,0,1
4468,17062,0,0,1
4469,17064,0,0,1
4470,17065,0,0,1
4471,17072,0,0,1
4472,17076,0,0,1
4473,17078,0,0,1
4474,17083,0,0,1
4475,17088,0,0,1
4476,17089,0,1,0
4477,17093,0,0,1
4478,17094,0,0,1
4479,17095,0,0,1
4480,17096,0,0,1
4481,17097,0,1,0
4482,17098,0,0,1
4483,17100,0,0,1
4484,17101,0,0,1
4485,17102,0,0,1
4486,17104,0,0,1
4487,17106,0,0,1
4488,17107,0,0,1
4489,17108,0,1,0
4490,17112,0,1,0
4491,17131,0,0,1
4492,17139,0,0,1
4493,17140,0,0,1
4494,17142,0,0,1
4495,17143,0,0,1
4496,17145,0,0,1
4497,17146,0,0,1
4498,17150,0,0,1
4499,17160,0,0,1
4500,17164,0,0,1
4501,17169,0,0,1
4502,17173,0,0,1
4503,17186,0,0,1
4504,17187,0,1,0
4505,17190,0,0,1
4506,17192,0,0,1
4507,17194,0,0,1
4508,17195,0,0,1
4509,17203,0,1,0
4510,17204,0,0,1
4511,17205,0,0,1
4512,17208,0,0,1
4513,17209,0,0,1
4514,17211,0,0,1
4515,17213,0,0,1
4516,17218,0,0,1
4517,17220,0,0,1
4518,17221,0,0,1
4519,17223,0,0,1
4520,17229,0,0,1
4521,17230,0,0,1
4522,17236,0,0,1
4523,17239,0,0,1
4524,17248,0,0,1
4525,17250,0,0,1
4526,17261,0,0,1
4527,17263,0,0,1
4528,17268,0,2,0
4529,17269,0,0,1
4530,17271,0,2,0
4531,17272,0,2,0
4532,17273,0,0,1
4533,17275,0,0,1
4534,17280,0,0,1
4535,17281,0,0,1
4536,17286,0,0,1
4537,17289,0,0,1
4538,17291,0,0,1
4539,17294,0,0,1
4540,17299,0,0,1
4541,17301,0,0,1
4542,17304,0,0,1
4543,17305,0,0,1
4544,17306,0,2,0
4545,17308,0,0,1
4546,17317,0,0,1
4547,17323,0,0,1
4548,17327,0,0,1
4549,17334,0,0,1
4550,17338,0,0,1
4551,17343,0,0,1
4552,17358,0,0,1
4553,17363,0,0,1
4554,17364,0,0,1
4555,17366,0,0,1
4556,17367,0,0,1
4557,17374,0,0,1
4558,17384,0,0,1
4559,17387,0,0,1
4560,17389,0,0,1
4561,17391,0,0,1
4562,17392,0,0,1
4563,17404,0,0,1
4564,17405,0,0,1
4565,17407,0,0,1
4566,17412,0,0,1
4567,17418,0,0,1
4568,17419,0,0,1
4569,17424,0,0,1
4570,17428,0,0,1
4571,17430,0,0,1
4572,17431,0,0,1
4573,17432,0,0,1
4574,17434,0,0,1
4575,17442,0,0,1
4576,17444,0,0,1
4577,17446,0,0,1
4578,17461,0,0,1
4579,17468,0,0,1
4580,17469,0,0,1
4581,17475,0,0,1
4582,17481,0,0,1
4583,17489,0,1,0
4584,17498,0,0,1
4585,17511,0,0,1
4586,17512,0,0,1
4587,17513,0,1,0
4588,17517,0,0,1
4589,17518,0,0,1
4590,17520,0,0,1
4591,17521,0,0,1
4592,17523,0,0,1
4593,17531,0,0,1
4594,17532,0,0,1
4595,17533,0,0,1
4596,17538,0,0,1
4597,17542,0,0,1
4598,17544,0,0,1
4599,17545,0,0,1
4600,17546,0,0,1
4601,17555,0,0,1
4602,17557,0,0,1
4603,17564,0,0,1
4604,17572,0,0,1
4605,17574,0,0,1
4606,17581,0,0,1
4607,17583,0,0,1
4608,17587,0,0,1
4609,17590,0,0,1
4610,17596,0,0,1
4611,17598,0,0,1
4612,17604,0,0,1
4613,17609,0,0,1
4614,17614,0,0,1
4615,17619,0,0,1
4616,17622,0,0,1
4617,17627,0,0,1
4618,17633,0,0,1
4619,17635,0,0,1
4620,17641,0,0,1
4621,17642,0,0,1
4622,17645,0,0,1
4623,17647,0,0,1
4624,17651,0,0,1
4625,17656,0,0,1
4626,17672,0,0,1
4627,17673,0,0,1
4628,17681,0,0,1
4629,17689,0,0,1
4630,17690,0,0,1
4631,17691,0,0,1
4632,17692,0,0,1
4633,17698,0,0,1
4634,17700,0,0,1
4635,17701,0,0,1
4636,17704,0,0,1
4637,17710,0,0,1
4638,17728,0,0,1
4639,17732,0,0,1
4640,17736,0,0,1
4641,17738,0,0,1
4642,17739,0,0,1
4643,17743,0,0,1
4644,17746,0,0,1
4645,17751,0,0,1
4646,17754,0,0,1
4647,17765,0,0,1
4648,17777,0,0,1
4649,17778,0,0,1
4650,17782,0,0,1
4651,17785,0,0,1
4652,17787,0,0,1
4653,17789,0,0,1
4654,17795,0,0,1
4655,17800,0,0,1
4656,17802,0,0,1
4657,17803,0,0,1
4658,17807,0,1,0
4659,17808,0,0,1
4660,17810,0,0,1
4661,17812,0,0,1
4662,17820,0,0,1
4663,17822,0,0,1
4664,17829,0,0,1
4665,17838,0,0,1
4666,17842,0,0,1
4667,17844,0,0,1
4668,17851,0,0,1
4669,17859,0,0,1
4670,17868,0,0,1
4671,17872,0,0,1
4672,17881,0,0,1
4673,17884,0,0,1
4674,17886,0,0,1
4675,17887,0,0,1
4676,17890,0,0,1
4677,17891,0,1,0
4678,17896,0,0,1
4679,17899,0,0,1
4680,17901,0,0,1
4681,17902,0,0,1
4682,17903,0,0,1
4683,17904,0,0,1
4684,17906,0,0,1
4685,17907,0,0,1
4686,17914,0,0,1
4687,17916,0,0,1
4688,17917,0,0,1
4689,17918,0,0,1
4690,17922,0,0,1
4691,17923,0,1,0
4692,17927,0,0,1
4693,17929,0,0,1
4694,17943,0,0,1
4695,17944,0,0,1
4696,17946,0,0,1
4697,17951,0,0,1
4698,17952,0,0,1
4699,17953,0,0,1
4700,17957,0,0,1
4701,17962,0,0,1
4702,17965,0,0,1
4703,17967,0,0,1
4704,17981,0,0,1
4705,17983,0,0,1
4706,17989,0,0,1
4707,18004,0,0,1
4708,18005,0,0,1
4709,18013,0,0,1
4710,18014,0,3,0
4711,18015,0,0,1
4712,18025,0,0,1
4713,18027,0,0,1
4714,18029,0,0,1
4715,18032,0,0,1
4716,18034,0,0,1
4717,18035,0,0,1
4718,18038,0,0,1
4719,18047,0,0,1
4720,18048,0,0,1
4721,18050,0,0,1
4722,18051,0,0,1
4723,18058,0,0,1
4724,18059,0,0,1
4725,18060,0,0,1
4726,18061,0,0,1
4727,18066,0,0,1
4728,18071,0,1,0
4729,18073,0,0,1
4730,18074,0,0,1
4731,18077,0,0,1
4732,18080,0,0,1
4733,18088,0,0,1
4734,18092,0,0,1
4735,18095,0,0,1
4736,18104,0,0,1
4737,18106,0,0,1
4738,18107,0,0,1
4739,18109,0,0,1
4740,18111,0,0,1
4741,18112,0,0,1
4742,18118,0,0,1
4743,18127,0,0,1
4744,18131,0,0,1
4745,18133,0,0,1
4746,18137,0,0,1
4747,18138,0,0,1
4748,18140,0,0,1
4749,18141,0,0,1
4750,18146,0,0,1
4751,18150,0,0,1
4752,18151,0,0,1
4753,18153,0,0,1
4754,18155,0,2,0
4755,18160,0,1,0
4756,18164,0,0,1
4757,18169,0,0,1
4758,18171,0,0,1
4759,18172,0,0,1
4760,18185,0,0,1
4761,18201,0,1,0
4762,18206,0,0,1
4763,18218,0,0,1
4764,18221,0,0,1
4765,18223,0,0,1
4766,18227,0,0,1
4767,18231,0,0,1
4768,18235,0,0,1
4769,18237,0,0,1
4770,18239,0,0,1
4771,18241,0,0,1
4772,18244,0,1,0
4773,18254,0,0,1
4774,18255,0,0,1
4775,18256,0,0,1
4776,18259,0,0,1
4777,18273,0,0,1
4778,18284,0,0,1
4779,18285,0,0,1
4780,18292,0,0,1
4781,18302,0,2,0
4782,18303,0,0,1
4783,18307,0,0,1
4784,18312,0,0,1
4785,18317,0,0,1
4786,18320,0,0,1
4787,18321,0,0,1
4788,18323,0,0,1
4789,18331,0,0,1
4790,18332,0,0,1
4791,18334,0,0,1
4792,18335,0,0,1
4793,18343,0,0,1
4794,18344,0,0,1
4795,18345,0,0,1
4796,18346,0,0,1
4797,18347,0,4,0
4798,18350,0,0,1
4799,18352,0,0,1
4800,18355,0,0,1
4801,18356,0,0,1
4802,18360,0,0,1
4803,18366,0,0,1
4804,18368,0,0,1
4805,18379,0,0,1
4806,18385,0,0,1
4807,18392,0,0,1
4808,18393,0,0,1
4809,18394,0,0,1
4810,18396,0,0,1
4811,18397,0,0,1
4812,18399,0,0,1
4813,18402,0,0,1
4814,18403,0,0,1
4815,18409,0,0,1
4816,18410,0,0,1
4817,18416,0,0,1
4818,18417,0,0,1
4819,18422,0,0,1
4820,18423,0,0,1
4821,18425,0,0,1
4822,18428,0,0,1
4823,18429,0,0,1
4824,18434,0,0,1
4825,18436,0,0,1
4826,18444,0,1,0
4827,18447,0,0,1
4828,18448,0,0,1
4829,18450,0,1,0
4830,18451,0,2,0
4831,18464,0,0,1
4832,18465,0,0,1
4833,18468,0,0,1
4834,18471,0,0,1
4835,18472,0,0,1
4836,18475,0,0,1
4837,18476,0,0,1
4838,18477,0,0,1
4839,18479,0,0,1
4840,18482,0,0,1
4841,18484,0,0,1
4842,18490,0,0,1
4843,18491,0,0,1
4844,18495,0,3,0
4845,18496,0,0,1
4846,18501,0,1,0
4847,18507,0,0,1
4848,18517,0,0,1
4849,18523,0,0,1
4850,18529,0,0,1
4851,18536,0,0,1
4852,18539,0,0,1
4853,18540,0,0,1
4854,18543,0,0,1
4855,18545,0,1,0
4856,18549,0,0,1
4857,18550,0,0,1
4858,18551,0,0,1
4859,18554,0,0,1
4860,18559,0,0,1
4861,18560,0,0,1
4862,18563,0,0,1
4863,18565,0,0,1
4864,18568,0,0,1
4865,18569,0,0,1
4866,18570,0,0,1
4867,18571,0,0,1
4868,18582,0,0,1
4869,18587,0,0,1
4870,18594,0,0,1
4871,18598,0,0,1
4872,18613,0,0,1
4873,18617,0,0,1
4874,18621,0,2,0
4875,18625,0,0,1
4876,18631,0,0,1
4877,18632,0,0,1
4878,18633,0,0,1
4879,18634,0,0,1
4880,18635,0,0,1
4881,18652,0,0,1
4882,18653,0,0,1
4883,18660,0,0,1
4884,18664,0,0,1
4885,18666,0,0,1
4886,18671,0,0,1
4887,18673,0,0,1
4888,18688,0,0,1
4889,18697,0,0,1
4890,18702,0,0,1
4891,18706,0,0,1
4892,18708,0,0,1
4893,18712,0,0,1
4894,18714,0,0,1
4895,18723,0,0,1
4896,18724,0,0,1
4897,18727,0,0,1
4898,18731,0,0,1
4899,18734,0,0,1
4900,18735,0,0,1
4901,18736,0,0,1
4902,18737,0,0,1
4903,18744,0,0,1
4904,18749,0,0,1
4905,18753,0,0,1
4906,18758,0,0,1
4907,18760,0,0,1
4908,18765,0,0,1
4909,18767,0,0,1
4910,18768,0,0,1
4911,18770,0,0,1
4912,18774,0,0,1
4913,18776,0,0,1
4914,18779,0,0,1
4915,18795,0,0,1
4916,18797,0,1,0
4917,18798,0,0,1
4918,18799,0,0,1
4919,18804,0,0,1
4920,18805,0,0,1
4921,18806,0,0,1
4922,18811,0,0,1
4923,18813,0,0,1
4924,18819,0,0,1
4925,18820,0,2,0
4926,18825,0,0,1
4927,18827,0,1,0
4928,18831,0,0,1
4929,18835,0,0,1
4930,18839,0,0,1
4931,18846,0,0,1
4932,18852,0,0,1
4933,18857,0,0,1
4934,18858,0,0,1
4935,18861,0,0,1
4936,18863,0,0,1
4937,18864,0,0,1
4938,18867,0,1,0
4939,18872,0,0,1
4940,18882,0,0,1
4941,18885,0,0,1
4942,18886,0,0,1
4943,18887,0,0,1
4944,18889,0,1,0
4945,18896,0,0,1
4946,18897,0,0,1
4947,18898,0,1,0
4948,18900,0,0,1
4949,18904,0,0,1
4950,18905,0,0,1
4951,18906,0,0,1
4952,18911,0,0,1
4953,18917,0,0,1
4954,18919,0,0,1
4955,18923,0,0,1
4956,18925,0,0,1
4957,18926,0,0,1
4958,18935,0,0,1
4959,18942,0,0,1
4960,18948,0,0,1
4961,18951,0,0,1
4962,18953,0,0,1
4963,18962,0,0,1
4964,18966,0,0,1
4965,18969,0,0,1
4966,18977,0,0,1
4967,18979,0,0,1
4968,18980,0,0,1
4969,18983,0,0,1
4970,18984,0,0,1
4971,18986,0,0,1
4972,18987,0,0,1
4973,18990,0,0,1
4974,18992,0,0,1
4975,18993,0,0,1
4976,18996,0,0,1
4977,19000,0,0,1
4978,19004,0,0,1
4979,19006,0,0,1
4980,19012,0,0,1
4981,19013,0,0,1
4982,19018,0,0,1
4983,19019,0,1,0
4984,19021,0,1,0
4985,19022,0,0,1
4986,19024,0,1,0
4987,19029,0,0,1
4988,19035,0,2,0
4989,19036,0,0,1
4990,19037,0,0,1
4991,19040,0,0,1
4992,19043,0,0,1
4993,19049,0,0,1
4994,19051,0,0,1
4995,19052,0,0,1
4996,19055,0,0,1
4997,19067,0,0,1
4998,19069,0,0,1
4999,19070,0,0,1
5000,19074,0,1,0
5001,19079,0,0,1
5002,19081,0,0,1
5003,19092,0,0,1
5004,19095,0,0,1
5005,19096,0,0,1
5006,19099,0,0,1
5007,19104,0,0,1
5008,19105,0,0,1
5009,19109,0,0,1
5010,19112,0,0,1
5011,19116,0,0,1
5012,19122,0,0,1
5013,19124,0,0,1
5014,19126,0,0,1
5015,19132,0,0,1
5016,19136,0,0,1
5017,19138,0,0,1
5018,19143,0,0,1
5019,19145,0,0,1
5020,19152,0,0,1
5021,19161,0,0,1
5022,19162,0,0,1
5023,19166,0,0,1
5024,19167,0,0,1
5025,19169,0,0,1
5026,19186,0,0,1
5027,19187,0,0,1
5028,19188,0,0,1
5029,19190,0,1,0
5030,19193,0,0,1
5031,19197,0,0,1
5032,19201,0,0,1
5033,19206,0,0,1
5034,19207,0,0,1
5035,19215,0,0,1
5036,19218,0,0,1
5037,19224,0,0,1
5038,19227,0,0,1
5039,19244,0,0,1
5040,19248,0,0,1
5041,19251,0,0,1
5042,19252,0,0,1
5043,19255,0,0,1
5044,19256,0,0,1
5045,19259,0,0,1
5046,19263,0,0,1
5047,19267,0,0,1
5048,19268,0,0,1
5049,19272,0,0,1
5050,19282,0,0,1
5051,19284,0,0,1
5052,19285,0,0,1
5053,19287,0,0,1
5054,19288,0,0,1
5055,19292,0,3,0
5056,19294,0,0,1
5057,19296,0,0,1
5058,19297,0,0,1
5059,19298,0,2,0
5060,19307,0,0,1
5061,19321,0,0,1
5062,19325,0,0,1
5063,19326,0,0,1
5064,19330,0,0,1
5065,19333,0,0,1
5066,19337,0,0,1
5067,19342,0,0,1
5068,19344,0,0,1
5069,19358,0,0,1
5070,19362,0,0,1
5071,19379,0,0,1
5072,19380,0,0,1
5073,19382,0,0,1
5074,19384,0,1,0
5075,19386,0,0,1
5076,19387,0,0,1
5077,19392,0,0,1
5078,19393,0,0,1
5079,19394,0,0,1
5080,19395,0,0,1
5081,19401,0,0,1
5082,19405,0,0,1
5083,19419,0,0,1
5084,19423,0,0,1
5085,19424,0,0,1
5086,19429,0,0,1
5087,19431,0,0,1
5088,19434,0,0,1
5089,19435,0,0,1
5090,19439,0,0,1
5091,19448,0,0,1
5092,19454,0,0,1
5093,19470,0,0,1
5094,19473,0,0,1
5095,19486,0,0,1
5096,19487,0,0,1
5097,19491,0,0,1
5098,19492,0,0,1
5099,19494,0,0,1
5100,19499,0,0,1
5101,19500,0,0,1
5102,19501,0,0,1
5103,19505,0,0,1
5104,19507,0,0,1
5105,19509,0,0,1
5106,19512,0,0,1
5107,19518,0,0,1
5108,19520,0,0,1
5109,19521,0,0,1
5110,19532,0,0,1
5111,19533,0,0,1
5112,19538,0,0,1
5113,19540,0,0,1
5114,19544,0,0,1
5115,19550,0,0,1
5116,19552,0,0,1
5117,19554,0,2,0
5118,19559,0,0,1
5119,19564,0,1,0
5120,19570,0,0,1
5121,19575,0,0,1
5122,19576,0,0,1
5123,19578,0,0,1
5124,19581,0,0,1
5125,19589,0,0,1
5126,19594,0,0,1
5127,19597,0,0,1
5128,19604,0,0,1
5129,19607,0,0,1
5130,19609,0,0,1
5131,19612,0,0,1
5132,19617,0,0,1
5133,19623,0,1,0
5134,19625,0,0,1
5135,19628,0,0,1
5136,19632,0,0,1
5137,19637,0,0,1
5138,19643,0,0,1
5139,19645,0,0,1
5140,19650,0,0,1
5141,19654,0,0,1
5142,19655,0,0,1
5143,19661,0,0,1
5144,19669,0,0,1
5145,19670,0,0,1
5146,19671,0,0,1
5147,19675,0,1,0
5148,19679,0,1,0
5149,19681,0,0,1
5150,19682,0,1,0
5151,19689,0,0,1
5152,19691,0,0,1
5153,19692,0,0,1
5154,19694,0,1,0
5155,19697,0,0,1
5156,19703,0,0,1
5157,19712,0,3,0
5158,19713,0,0,1
5159,19719,0,0,1
5160,19720,0,0,1
5161,19726,0,0,1
5162,19727,0,0,1
5163,19728,0,0,1
5164,19729,0,1,0
5165,19732,0,0,1
5166,19738,0,0,1
5167,19739,0,0,1
5168,19752,0,0,1
5169,19764,0,1,0
5170,19774,0,1,0
5171,19776,0,0,1
5172,19779,0,0,1
5173,19783,0,0,1
5174,19796,0,1,0
5175,19815,0,0,1
5176,19816,0,0,1
5177,19817,0,0,1
5178,19819,0,0,1
5179,19822,0,0,1
5180,19823,0,0,1
5181,19824,0,0,1
5182,19826,0,0,1
5183,19837,0,0,1
5184,19858,0,0,1
5185,19860,0,0,1
5186,19864,0,0,1
5187,19866,0,0,1
5188,19873,0,0,1
5189,19875,0,0,1
5190,19882,0,0,1
5191,19883,0,0,1
5192,19888,0,0,1
5193,19889,0,2,0
5194,19893,0,0,1
5195,19894,0,1,0
5196,19900,0,0,1
5197,19903,0,0,1
5198,19905,0,0,1
5199,19908,0,0,1
5200,19911,0,0,1
5201,19913,0,0,1
5202,19917,0,0,1
5203,19924,0,0,1
5204,19926,0,0,1
5205,19929,0,0,1
5206,19931,0,0,1
5207,19942,0,0,1
5208,19947,0,0,1
5209,19951,0,2,0
5210,19956,0,0,1
5211,19958,0,0,1
5212,19959,0,0,1
5213,19963,0,0,1
5214,19972,0,0,1
5215,19987,0,0,1
5216,19997,0,0,1
5217,19998,0,0,1
5218,20001,0,0,1
5219,20008,0,1,0
5220,20010,0,0,1
5221,20013,0,0,1
5222,20015,0,0,1
5223,20016,0,0,1
5224,20018,0,0,1
5225,20023,0,0,1
5226,20026,0,0,1
5227,20031,0,0,1
5228,20042,0,0,1
5229,20053,0,0,1
5230,20054,0,0,1
5231,20056,0,0,1
5232,20057,0,0,1
5233,20064,0,0,1
5234,20067,0,0,1
5235,20073,0,0,1
5236,20074,0,0,1
5237,20075,0,0,1
5238,20078,0,1,0
5239,20082,0,0,1
5240,20083,0,0,1
5241,20084,0,0,1
5242,20110,0,0,1
5243,20117,0,0,1
5244,20119,0,0,1
5245,20124,0,0,1
5246,20130,0,0,1
5247,20136,0,1,0
5248,20138,0,0,1
5249,20144,0,2,0
5250,20146,0,0,1
5251,20151,0,0,1
5252,20152,0,0,1
5253,20155,0,0,1
5254,20156,0,0,1
5255,20157,0,0,1
5256,20158,0,0,1
5257,20161,0,0,1
5258,20164,0,0,1
5259,20167,0,0,1
5260,20170,0,0,1
5261,20171,0,0,1
5262,20176,0,0,1
5263,20179,0,0,1
5264,20180,0,0,1
5265,20185,0,0,1
5266,20187,0,0,1
5267,20190,0,0,1
5268,20191,0,2,0
5269,20193,0,0,1
5270,20194,0,0,1
5271,20198,0,0,1
5272,20199,0,0,1
5273,20202,0,1,0
5274,20204,0,0,1
5275,20211,0,0,1
5276,20216,0,0,1
5277,20224,0,0,1
5278,20229,0,0,1
5279,20231,0,0,1
5280,20232,0,0,1
5281,20235,0,0,1
5282,20236,0,0,1
5283,20237,0,0,1
5284,20238,0,0,1
5285,20239,0,0,1
5286,20246,0,0,1
5287,20248,0,0,1
5288,20250,0,0,1
5289,20256,0,0,1
5290,20271,0,0,1
5291,20276,0,0,1
5292,20278,0,0,1
5293,20285,0,0,1
5294,20287,0,0,1
5295,20293,0,0,1
5296,20295,0,0,1
5297,20296,0,0,1
5298,20300,0,0,1
5299,20301,0,0,1
5300,20303,0,0,1
5301,20308,0,0,1
5302,20310,0,0,1
5303,20311,0,0,1
5304,20315,0,0,1
5305,20320,0,0,1
5306,20322,0,0,1
5307,20332,0,0,1
5308,20337,0,0,1
5309,20340,0,0,1
5310,20342,0,0,1
5311,20348,0,0,1
5312,20349,0,0,1
5313,20355,0,0,1
5314,20360,0,0,1
5315,20363,0,0,1
5316,20368,0,0,1
5317,20369,0,0,1
5318,20378,0,0,1
5319,20379,0,0,1
5320,20385,0,0,1
5321,20390,0,0,1
5322,20391,0,1,0
5323,20393,0,0,1
5324,20395,0,0,1
5325,20396,0,0,1
5326,20401,0,0,1
5327,20406,0,0,1
5328,20407,0,0,1
5329,20410,0,0,1
5330,20412,0,0,1
5331,20415,0,0,1
5332,20416,0,0,1
5333,20429,0,1,0
5334,20430,0,0,1
5335,20432,0,0,1
5336,20434,0,0,1
5337,20441,0,0,1
5338,20448,0,0,1
5339,20454,0,0,1
5340,20459,0,0,1
5341,20461,0,0,1
5342,20464,0,0,1
5343,20468,0,0,1
5344,20470,0,0,1
5345,20473,0,0,1
5346,20478,0,2,0
5347,20479,0,0,1
5348,20482,0,0,1
5349,20483,0,0,1
5350,20486,0,0,1
5351,20489,0,0,1
5352,20493,0,0,1
5353,20494,0,0,1
5354,20505,0,1,0
5355,20527,0,0,1
5356,20529,0,0,1
5357,20538,0,0,1
5358,20542,0,0,1
5359,20546,0,0,1
5360,20549,0,1,0
5361,20556,0,0,1
5362,20559,0,0,1
5363,20560,0,0,1
5364,20562,0,2,0
5365,20564,0,0,1
5366,20568,0,0,1
5367,20571,0,0,1
5368,20573,0,0,1
5369,20574,0,0,1
5370,20580,0,1,0
5371,20586,0,0,1
5372,20587,0,0,1
5373,20589,0,0,1
5374,20591,0,0,1
5375,20593,0,0,1
5376,20595,0,0,1
5377,20602,0,0,1
5378,20605,0,0,1
5379,20607,0,1,0
5380,20609,0,0,1
5381,20610,0,0,1
5382,20614,0,0,1
5383,20618,0,0,1
5384,20622,0,0,1
5385,20630,0,0,1
5386,20633,0,0,1
5387,20634,0,0,1
5388,20636,0,0,1
5389,20641,0,0,1
5390,20643,0,0,1
5391,20649,0,0,1
5392,20650,0,0,1
5393,20654,0,0,1
5394,20656,0,0,1
5395,20660,0,0,1
5396,20662,0,0,1
5397,20663,0,0,1
5398,20669,0,0,1
5399,20670,0,0,1
5400,20671,0,0,1
5401,20675,0,2,0
5402,20676,0,0,1
5403,20677,0,0,1
5404,20678,0,0,1
5405,20679,0,0,1
5406,20680,0,0,1
5407,20682,0,0,1
5408,20683,0,0,1
5409,20685,0,0,1
5410,20688,0,0,1
5411,20698,0,0,1
5412,20703,0,0,1
5413,20705,0,0,1
5414,20707,0,0,1
5415,20709,0,0,1
5416,20712,0,1,0
5417,20713,0,0,1
5418,20714,0,0,1
5419,20715,0,0,1
5420,20718,0,0,1
5421,20722,0,0,1
5422,20723,0,0,1
5423,20725,0,1,0
5424,20727,0,0,1
5425,20733,0,0,1
5426,20743,0,0,1
5427,20745,0,0,1
5428,20747,0,1,0
5429,20750,0,0,1
5430,20752,0,0,1
5431,20754,0,0,1
5432,20757,0,0,1
5433,20758,0,0,1
5434,20762,0,0,1
5435,20764,0,0,1
5436,20767,0,0,1
5437,20769,0,0,1
5438,20776,0,0,1
5439,20781,0,0,1
5440,20782,0,0,1
5441,20788,0,0,1
5442,20796,0,0,1
5443,20797,0,0,1
5444,20807,0,0,1
5445,20809,0,0,1
5446,20811,0,0,1
5447,20816,0,0,1
5448,20818,0,0,1
5449,20823,0,0,1
5450,20825,0,0,1
5451,20826,0,0,1
5452,20832,0,1,0
5453,20833,0,0,1
5454,20835,0,0,1
5455,20837,0,1,0
5456,20844,0,0,1
5457,20845,0,0,1
5458,20852,0,1,0
5459,20854,0,0,1
5460,20857,0,1,0
5461,20858,0,0,1
5462,20862,0,0,1
5463,20863,0,0,1
5464,20874,0,0,1
5465,20876,0,0,1
5466,20877,0,0,1
5467,20883,0,0,1
5468,20885,0,0,1
5469,20888,0,0,1
5470,20896,0,0,1
5471,20898,0,0,1
5472,20899,0,0,1
5473,20901,0,0,1
5474,20904,0,2,0
5475,20905,0,0,1
5476,20906,0,0,1
5477,20908,0,0,1
5478,20912,0,0,1
5479,20913,0,0,1
5480,20915,0,0,1
5481,20917,0,0,1
5482,20920,0,0,1
5483,20921,0,0,1
5484,20926,0,0,1
5485,20927,0,0,1
5486,20928,0,0,1
5487,20932,0,0,1
5488,20933,0,0,1
5489,20934,0,0,1
5490,20936,0,0,1
5491,20945,0,0,1
5492,20949,0,0,1
5493,20951,0,0,1
5494,20954,0,0,1
5495,20964,0,0,1
5496,20968,0,0,1
5497,20969,0,0,1
5498,20970,0,0,1
5499,20971,0,0,1
5500,20974,0,0,1
5501,20979,0,0,1
5502,20988,0,0,1
5503,20991,0,0,1
5504,20996,0,0,1
5505,20999,0,0,1
5506,21004,0,0,1
5507,21009,0,1,0
5508,21010,0,0,1
5509,21011,0,0,1
5510,21014,0,0,1
5511,21015,0,0,1
5512,21016,0,0,1
5513,21030,0,0,1
5514,21038,0,0,1
5515,21039,0,0,1
5516,21040,0,0,1
5517,21041,0,0,1
5518,21047,0,0,1
5519,21051,0,0,1
5520,21055,0,0,1
5521,21062,0,0,1
5522,21064,0,0,1
5523,21065,0,0,1
5524,21067,0,2,0
5525,21071,0,0,1
5526,21075,0,0,1
5527,21081,0,0,1
5528,21082,0,0,1
5529,21087,0,0,1
5530,21100,0,0,1
5531,21106,0,0,1
5532,21107,0,0,1
5533,21114,0,0,1
5534,21118,0,0,1
5535,21123,0,0,1
5536,21126,0,0,1
5537,21129,0,0,1
5538,21130,0,0,1
5539,21131,0,0,1
5540,21139,0,0,1
5541,21148,0,0,1
5542,21151,0,0,1
5543,21153,0,0,1
5544,21156,0,0,1
5545,21159,0,0,1
5546,21164,0,0,1
5547,21165,0,1,0
5548,21170,0,0,1
5549,21179,0,0,1
5550,21181,0,0,1
5551,21182,0,0,1
5552,21185,0,0,1
5553,21187,0,0,1
5554,21196,0,0,1
5555,21197,0,0,1
5556,21198,0,0,1
5557,21199,0,0,1
5558,21204,0,0,1
5559,21208,0,0,1
5560,21209,0,0,1
5561,21210,0,0,1
5562,21214,0,0,1
5563,21219,0,0,1
5564,21222,0,0,1
5565,21223,0,0,1
5566,21224,0,0,1
5567,21226,0,0,1
5568,21227,0,0,1
5569,21230,0,0,1
5570,21235,0,0,1
5571,21239,0,0,1
5572,21243,0,1,0
5573,21244,0,0,1
5574,21247,0,0,1
5575,21258,0,1,0
5576,21260,0,0,1
5577,21261,0,0,1
5578,21267,0,0,1
5579,21268,0,0,1
5580,21275,0,0,1
5581,21276,0,0,1
5582,21278,0,0,1
5583,21284,0,0,1
5584,21290,0,0,1
5585,21296,0,0,1
5586,21298,0,0,1
5587,21300,0,0,1
5588,21304,0,0,1
5589,21310,0,0,1
5590,21311,0,0,1
5591,21312,0,0,1
5592,21315,0,0,1
5593,21317,0,0,1
5594,21318,0,0,1
5595,21321,0,0,1
5596,21326,0,0,1
5597,21329,0,3,0
5598,21331,0,0,1
5599,21333,0,1,0
5600,21335,0,0,1
5601,21336,0,0,1
5602,21337,0,0,1
5603,21344,0,0,1
5604,21350,0,0,1
5605,21355,0,0,1
5606,21360,0,0,1
5607,21363,0,0,1
5608,21366,0,0,1
5609,21368,0,0,1
5610,21370,0,1,0
5611,21374,0,0,1
5612,21379,0,0,1
5613,21380,0,0,1
5614,21382,0,0,1
5615,21388,0,2,0
5616,21391,0,0,1
5617,21392,0,0,1
5618,21398,0,0,1
5619,21416,0,3,0
5620,21421,0,0,1
5621,21425,0,0,1
5622,21429,0,0,1
5623,21430,0,0,1
5624,21432,0,1,0
5625,21433,0,0,1
5626,21445,0,0,1
5627,21448,0,0,1
5628,21456,0,0,1
5629,21458,0,0,1
5630,21459,0,0,1
5631,21471,0,1,0
5632,21481,0,0,1
5633,21486,0,0,1
5634,21492,0,0,1
5635,21504,0,0,1
5636,21511,0,0,1
5637,21516,0,0,1
5638,21519,0,0,1
5639,21526,0,0,1
5640,21531,0,0,1
5641,21541,0,0,1
5642,21542,0,0,1
5643,21549,0,0,1
5644,21558,0,0,1
5645,21559,0,0,1
5646,21560,0,1,0
5647,21561,0,0,1
5648,21562,0,0,1
5649,21563,0,0,1
5650,21564,0,0,1
5651,21568,0,0,1
5652,21575,0,0,1
5653,21578,0,0,1
5654,21585,0,0,1
5655,21590,0,0,1
5656,21591,0,0,1
5657,21596,0,0,1
5658,21599,0,0,1
5659,21602,0,3,0
5660,21606,0,0,1
5661,21608,0,0,1
5662,21611,0,0,1
5663,21617,0,0,1
5664,21618,0,0,1
5665,21623,0,0,1
5666,21625,0,0,1
5667,21626,0,0,1
5668,21636,0,0,1
5669,21641,0,0,1
5670,21646,0,0,1
5671,21651,0,0,1
5672,21652,0,0,1
5673,21654,0,0,1
5674,21655,0,0,1
5675,21661,0,0,1
5676,21670,0,0,1
5677,21672,0,0,1
5678,21673,0,0,1
5679,21674,0,0,1
5680,21676,0,0,1
5681,21682,0,0,1
5682,21685,0,0,1
5683,21687,0,0,1
5684,21688,0,0,1
5685,21690,0,0,1
5686,21691,0,0,1
5687,21696,0,0,1
5688,21700,0,3,0
5689,21705,0,0,1
5690,21710,0,0,1
5691,21711,0,0,1
5692,21713,0,0,1
5693,21714,0,0,1
5694,21721,0,0,1
5695,21724,0,0,1
5696,21727,0,1,0
5697,21735,0,0,1
5698,21739,0,0,1
5699,21742,0,0,1
5700,21743,0,0,1
5701,21744,0,0,1
5702,21756,0,3,0
5703,21763,0,0,1
5704,21767,0,0,1
5705,21768,0,0,1
5706,21769,0,0,1
5707,21781,0,0,1
5708,21787,0,0,1
5709,21789,0,0,1
5710,21792,0,1,0
5711,21802,0,0,1
5712,21803,0,0,1
5713,21806,0,0,1
5714,21807,0,0,1
5715,21808,0,0,1
5716,21816,0,0,1
5717,21818,0,0,1
5718,21821,0,0,1
5719,21829,0,0,1
5720,21830,0,0,1
5721,21831,0,0,1
5722,21836,0,0,1
5723,21837,0,0,1
5724,21838,0,1,0
5725,21845,0,1,0
5726,21847,0,3,0
5727,21849,0,0,1
5728,21853,0,0,1
5729,21859,0,0,1
5730,21861,0,1,0
5731,21864,0,0,1
5732,21874,0,0,1
5733,21876,0,0,1
5734,21879,0,0,1
5735,21883,0,0,1
5736,21886,0,0,1
5737,21890,0,0,1
5738,21894,0,0,1
5739,21896,0,3,0
5740,21897,0,0,1
5741,21900,0,0,1
5742,21903,0,0,1
5743,21905,0,0,1
5744,21908,0,0,1
5745,21913,0,0,1
5746,21922,0,0,1
5747,21929,0,0,1
5748,21931,0,0,1
5749,21934,0,0,1
5750,21939,0,0,1
5751,21940,0,0,1
5752,21944,0,0,1
5753,21947,0,1,0
5754,21950,0,0,1
5755,21952,0,0,1
5756,21955,0,0,1
5757,21963,0,0,1
5758,21965,0,0,1
5759,21966,0,0,1
5760,21969,0,0,1
5761,21970,0,0,1
5762,21977,0,0,1
5763,21980,0,0,1
5764,21984,0,0,1
5765,21986,0,0,1
5766,21990,0,2,0
5767,21992,0,1,0
5768,21995,0,0,1
5769,22003,0,0,1
5770,22007,0,0,1
5771,22009,0,1,0
5772,22010,0,0,1
5773,22012,0,0,1
5774,22013,0,0,1
5775,22016,0,0,1
5776,22022,0,0,1
5777,22025,0,0,1
5778,22026,0,0,1
5779,22028,0,0,1
5780,22040,0,0,1
5781,22041,0,0,1
5782,22044,0,0,1
5783,22048,0,0,1
5784,22049,0,0,1
5785,22051,0,0,1
5786,22053,0,0,1
5787,22059,0,0,1
5788,22067,0,0,1
5789,22070,0,0,1
5790,22079,0,0,1
5791,22080,0,0,1
5792,22083,0,0,1
5793,22084,0,0,1
5794,22090,0,0,1
5795,22092,0,0,1
5796,22093,0,0,1
5797,22094,0,0,1
5798,22104,0,0,1
5799,22108,0,0,1
5800,22110,0,0,1
5801,22116,0,0,1
5802,22120,0,0,1
5803,22125,0,1,0
5804,22127,0,0,1
5805,22133,0,0,1
5806,22136,0,0,1
5807,22137,0,0,1
5808,22139,0,0,1
5809,22141,0,0,1
5810,22146,0,0,1
5811,22147,0,0,1
5812,22153,0,0,1
5813,22154,0,0,1
5814,22158,0,0,1
5815,22159,0,0,1
5816,22160,0,0,1
5817,22163,0,0,1
5818,22167,0,0,1
5819,22171,0,0,1
5820,22184,0,1,0
5821,22186,0,0,1
5822,22188,0,0,1
5823,22190,0,0,1
5824,22199,0,0,1
5825,22201,0,0,1
5826,22205,0,0,1
5827,22207,0,0,1
5828,22216,0,0,1
5829,22219,0,0,1
5830,22224,0,0,1
5831,22226,0,0,1
5832,22228,0,0,1
5833,22233,0,0,1
5834,22235,0,0,1
5835,22248,0,0,1
5836,22250,0,0,1
5837,22252,0,0,1
5838,22253,0,0,1
5839,22264,0,0,1
5840,22265,0,0,1
5841,22280,0,0,1
5842,22289,0,0,1
5843,22294,0,1,0
5844,22295,0,0,1
5845,22312,0,0,1
5846,22314,0,0,1
5847,22316,0,0,1
5848,22318,0,0,1
5849,22319,0,0,1
5850,22320,0,0,1
5851,22324,0,0,1
5852,22327,0,0,1
5853,22329,0,0,1
5854,22336,0,0,1
5855,22338,0,0,1
5856,22343,0,0,1
5857,22344,0,0,1
5858,22347,0,0,1
5859,22352,0,0,1
5860,22353,0,0,1
5861,22355,0,0,1
5862,22358,0,0,1
5863,22365,0,0,1
5864,22367,0,0,1
5865,22368,0,0,1
5866,22374,0,0,1
5867,22382,0,1,0
5868,22383,0,0,1
5869,22385,0,0,1
5870,22389,0,0,1
5871,22391,0,0,1
5872,22399,0,0,1
5873,22405,0,0,1
5874,22409,0,0,1
5875,22410,0,0,1
5876,22415,0,0,1
5877,22416,0,0,1
5878,22417,0,0,1
5879,22428,0,0,1
5880,22429,0,0,1
5881,22440,0,0,1
5882,22441,0,3,0
5883,22449,0,0,1
5884,22450,0,0,1
5885,22454,0,0,1
5886,22460,0,0,1
5887,22475,0,0,1
5888,22477,0,0,1
5889,22479,0,0,1
5890,22481,0,0,1
5891,22483,0,0,1
5892,22485,0,0,1
5893,22491,0,0,1
5894,22494,0,0,1
5895,22500,0,0,1
5896,22501,0,0,1
5897,22508,0,0,1
5898,22510,0,0,1
5899,22513,0,0,1
5900,22514,0,2,0
5901,22525,0,0,1
5902,22529,0,1,0
5903,22532,0,0,1
5904,22542,0,0,1
5905,22544,0,0,1
5906,22548,0,0,1
5907,22554,0,0,1
5908,22561,0,0,1
5909,22565,0,0,1
5910,22570,0,0,1
5911,22571,0,0,1
5912,22576,0,0,1
5913,22577,0,0,1
5914,22578,0,0,1
5915,22579,0,0,1
5916,22580,0,0,1
5917,22583,0,0,1
5918,22584,0,3,0
5919,22586,0,0,1
5920,22589,0,0,1
5921,22590,0,0,1
5922,22591,0,0,1
5923,22596,0,0,1
5924,22597,0,1,0
5925,22601,0,0,1
5926,22607,0,0,1
5927,22610,0,0,1
5928,22612,0,0,1
5929,22618,0,0,1
5930,22620,0,0,1
5931,22633,0,0,1
5932,22637,0,0,1
5933,22638,0,0,1
5934,22640,0,0,1
5935,22652,0,0,1
5936,22657,0,1,0
5937,22660,0,0,1
5938,22662,0,0,1
5939,22663,0,0,1
5940,22667,0,0,1
5941,22670,0,0,1
5942,22671,0,0,1
5943,22681,0,0,1
5944,22685,0,0,1
5945,22687,0,0,1
5946,22690,0,0,1
5947,22693,0,0,1
5948,22697,0,0,1
5949,22699,0,0,1
5950,22707,0,0,1
5951,22708,0,0,1
5952,22713,0,0,1
5953,22716,0,0,1
5954,22719,0,0,1
5955,22722,0,0,1
5956,22726,0,0,1
5957,22727,0,0,1
5958,22728,0,0,1
5959,22730,0,0,1
5960,22741,0,0,1
5961,22747,0,0,1
5962,22749,0,0,1
5963,22756,0,0,1
5964,22757,0,0,1
5965,22770,0,0,1
5966,22773,0,0,1
5967,22774,0,0,1
5968,22782,0,0,1
5969,22785,0,0,1
5970,22789,0,0,1
5971,22791,0,0,1
5972,22796,0,1,0
5973,22806,0,1,0
5974,22807,0,0,1
5975,22810,0,0,1
5976,22812,0,0,1
5977,22815,0,0,1
5978,22816,0,0,1
5979,22817,0,0,1
5980,22820,0,0,1
5981,22823,0,0,1
5982,22827,0,1,0
5983,22830,0,0,1
5984,22837,0,0,1
5985,22843,0,0,1
5986,22851,0,0,1
5987,22855,0,0,1
5988,22860,0,0,1
5989,22866,0,0,1
5990,22871,0,0,1
5991,22880,0,0,1
5992,22882,0,0,1
5993,22886,0,0,1
5994,22887,0,0,1
5995,22888,0,0,1
5996,22892,0,0,1
5997,22894,0,0,1
5998,22902,0,1,0
5999,22903,0,0,1
6000,22906,0,0,1
6001,22908,0,0,1
6002,22919,0,0,1
6003,22923,0,0,1
6004,22926,0,0,1
6005,22931,0,0,1
6006,22934,0,0,1
6007,22937,0,1,0
6008,22943,0,0,1
6009,22947,0,1,0
6010,22949,0,0,1
6011,22950,0,0,1
6012,22952,0,1,0
6013,22958,0,0,1
6014,22962,0,0,1
6015,22964,0,0,1
6016,22966,0,1,0
6017,22974,0,0,1
6018,22975,0,0,1
6019,22978,0,1,0
6020,22980,0,0,1
6021,22981,0,0,1
6022,22985,0,0,1
6023,22986,0,0,1
6024,22989,0,0,1
6025,22991,0,0,1
6026,22992,0,0,1
6027,22996,0,0,1
6028,22997,0,0,1
6029,22998,0,0,1
6030,23000,0,0,1
6031,23009,0,0,1
6032,23010,0,0,1
6033,23022,0,0,1
6034,23027,0,1,0
6035,23032,0,0,1
6036,23035,0,0,1
6037,23037,0,0,1
6038,23047,0,0,1
6039,23048,0,0,1
6040,23051,0,0,1
6041,23058,0,0,1
6042,23062,0,0,1
6043,23064,0,0,1
6044,23066,0,0,1
6045,23068,0,0,1
6046,23075,0,0,1
6047,23078,0,0,1
6048,23089,0,0,1
6049,23092,0,0,1
6050,23093,0,0,1
6051,23094,0,0,1
6052,23102,0,1,0
6053,23103,0,0,1
6054,23104,0,0,1
6055,23106,0,0,1
6056,23113,0,0,1
6057,23116,0,0,1
6058,23120,0,0,1
6059,23129,0,0,1
6060,23134,0,0,1
6061,23139,0,0,1
6062,23141,0,0,1
6063,23142,0,0,1
6064,23144,0,0,1
6065,23157,0,1,0
6066,23164,0,0,1
6067,23170,0,0,1
6068,23172,0,0,1
6069,23181,0,0,1
6070,23185,0,0,1
6071,23187,0,0,1
6072,23191,0,0,1
6073,23192,0,0,1
6074,23202,0,0,1
6075,23208,0,0,1
6076,23210,0,0,1
6077,23214,0,0,1
6078,23216,0,0,1
6079,23221,0,0,1
6080,23232,0,0,1
6081,23236,0,0,1
6082,23238,0,0,1
6083,23243,0,0,1
6084,23247,0,1,0
6085,23255,0,0,1
6086,23261,0,0,1
6087,23263,0,0,1
6088,23275,0,0,1
6089,23286,0,0,1
6090,23288,0,0,1
6091,23291,0,0,1
6092,23295,0,0,1
6093,23299,0,2,0
6094,23303,0,0,1
6095,23311,0,0,1
6096,23317,0,0,1
6097,23318,0,0,1
6098,23324,0,1,0
6099,23327,0,0,1
6100,23328,0,0,1
6101,23334,0,0,1
6102,23337,0,0,1
6103,23339,0,0,1
6104,23341,0,0,1
6105,23342,0,1,0
6106,23346,0,0,1
6107,23347,0,0,1
6108,23348,0,0,1
6109,23349,0,0,1
6110,23355,0,0,1
6111,23357,0,0,1
6112,23359,0,0,1
6113,23361,0,0,1
6114,23364,0,1,0
6115,23365,0,0,1
6116,23368,0,0,1
6117,23371,0,0,1
6118,23377,0,0,1
6119,23380,0,0,1
6120,23382,0,0,1
6121,23389,0,0,1
6122,23392,0,0,1
6123,23393,0,0,1
6124,23396,0,0,1
6125,23398,0,0,1
6126,23400,0,0,1
6127,23404,0,0,1
6128,23405,0,1,0
6129,23406,0,0,1
6130,23410,0,0,1
6131,23411,0,0,1
6132,23412,0,0,1
6133,23416,0,0,1
6134,23422,0,2,0
6135,23424,0,1,0
6136,23430,0,0,1
6137,23431,0,0,1
6138,23432,0,0,1
6139,23437,0,0,1
6140,23439,0,0,1
6141,23440,0,0,1
6142,23449,0,0,1
6143,23450,0,0,1
6144,23453,0,0,1
6145,23457,0,0,1
6146,23463,0,0,1
6147,23467,0,0,1
6148,23475,0,0,1
6149,23478,0,0,1
6150,23479,0,2,0
6151,23483,0,0,1
6152,23501,0,0,1
6153,23503,0,0,1
6154,23509,0,0,1
6155,23511,0,1,0
6156,23517,0,0,1
6157,23529,0,0,1
6158,23534,0,0,1
6159,23537,0,0,1
6160,23548,0,0,1
6161,23551,0,0,1
6162,23557,0,0,1
6163,23559,0,0,1
6164,23562,0,0,1
6165,23564,0,0,1
6166,23570,0,1,0
6167,23574,0,0,1
6168,23575,0,0,1
6169,23578,0,0,1
6170,23587,0,0,1
6171,23594,0,0,1
6172,23600,0,0,1
6173,23607,0,0,1
6174,23610,0,0,1
6175,23612,0,0,1
6176,23613,0,0,1
6177,23615,0,0,1
6178,23619,0,0,1
6179,23621,0,0,1
6180,23622,0,0,1
6181,23625,0,0,1
6182,23630,0,0,1
6183,23631,0,0,1
6184,23632,0,0,1
6185,23635,0,0,1
6186,23639,0,0,1
6187,23641,0,0,1
6188,23646,0,2,0
6189,23647,0,0,1
6190,23648,0,0,1
6191,23653,0,0,1
6192,23660,0,1,0
6193,23661,0,0,1
6194,23662,0,0,1
6195,23663,0,0,1
6196,23664,0,0,1
6197,23666,0,0,1
6198,23667,0,0,1
6199,23677,0,0,1
6200,23682,0,0,1
6201,23688,0,0,1
6202,23689,0,0,1
6203,23696,0,0,1
6204,23697,0,0,1
6205,23703,0,2,0
6206,23715,0,0,1
6207,23721,0,0,1
6208,23724,0,0,1
6209,23726,0,0,1
6210,23729,0,0,1
6211,23732,0,0,1
6212,23737,0,0,1
6213,23739,0,0,1
6214,23742,0,1,0
6215,23743,0,0,1
6216,23748,0,0,1
6217,23749,0,0,1
6218,23750,0,0,1
6219,23753,0,3,0
6220,23754,0,0,1
6221,23756,0,0,1
6222,23764,0,0,1
6223,23767,0,0,1
6224,23772,0,0,1
6225,23775,0,0,1
6226,23780,0,0,1
6227,23785,0,0,1
6228,23789,0,0,1
6229,23790,0,0,1
6230,23796,0,0,1
6231,23802,0,0,1
6232,23807,0,0,1
6233,23808,0,0,1
6234,23809,0,0,1
6235,23815,0,0,1
6236,23829,0,0,1
6237,23830,0,1,0
6238,23832,0,0,1
6239,23837,0,0,1
6240,23838,0,0,1
6241,23839,0,0,1
6242,23841,0,0,1
6243,23842,0,0,1
6244,23851,0,0,1
6245,23852,0,0,1
6246,23854,0,0,1
6247,23855,0,0,1
6248,23856,0,0,1
6249,23860,0,0,1
6250,23862,0,3,0
6251,23867,0,0,1
6252,23868,0,0,1
6253,23869,0,0,1
6254,23870,0,0,1
6255,23879,0,0,1
6256,23882,0,0,1
6257,23886,0,0,1
6258,23894,0,1,0
6259,23901,0,2,0
6260,23902,0,0,1
6261,23904,0,0,1
6262,23908,0,0,1
6263,23912,0,0,1
6264,23915,0,1,0
6265,23916,0,0,1
6266,23920,0,0,1
6267,23922,0,0,1
6268,23923,0,0,1
6269,23926,0,0,1
6270,23927,0,0,1
6271,23928,0,0,1
6272,23929,0,1,0
6273,23931,0,1,0
6274,23937,0,0,1
6275,23938,0,0,1
6276,23941,0,3,0
6277,23943,0,0,1
6278,23948,0,0,1
6279,23964,0,2,0
6280,23971,0,0,1
6281,23973,0,0,1
6282,23975,0,0,1
6283,23976,0,2,0
6284,23978,0,0,1
6285,23980,0,0,1
6286,23981,0,0,1
6287,23984,0,0,1
6288,23988,0,0,1
6289,23989,0,0,1
6290,23990,0,0,1
6291,23991,0,0,1
6292,23994,0,0,1
6293,23996,0,0,1
6294,23997,0,0,1
6295,24001,0,0,1
6296,24004,0,0,1
6297,24005,0,0,1
6298,24006,0,0,1
6299,24007,0,0,1
6300,24020,0,0,1
6301,24023,0,0,1
6302,24024,0,0,1
6303,24026,0,0,1
6304,24031,0,0,1
6305,24032,0,0,1
6306,24036,0,0,1
6307,24041,0,0,1
6308,24046,0,0,1
6309,24047,0,0,1
6310,24053,0,0,1
6311,24057,0,0,1
6312,24058,0,0,1
6313,24076,0,0,1
6314,24092,0,0,1
6315,24096,0,0,1
6316,24100,0,0,1
6317,24101,0,0,1
6318,24103,0,0,1
6319,24105,0,0,1
6320,24107,0,0,1
6321,24110,0,0,1
6322,24121,0,0,1
6323,24126,0,1,0
6324,24129,0,1,0
6325,24131,0,0,1
6326,24133,0,1,0
6327,24135,0,0,1
6328,24140,0,0,1
6329,24143,0,2,0
6330,24144,0,0,1
6331,24145,0,0,1
6332,24149,0,0,1
6333,24157,0,1,0
6334,24158,0,0,1
6335,24167,0,0,1
6336,24170,0,0,1
6337,24171,0,0,1
6338,24178,0,0,1
6339,24179,0,0,1
6340,24183,0,0,1
6341,24186,0,0,1
6342,24189,0,0,1
6343,24198,0,0,1
6344,24199,0,2,0
6345,24201,0,0,1
6346,24205,0,0,1
6347,24213,0,0,1
6348,24215,0,0,1
6349,24216,0,0,1
6350,24221,0,0,1
6351,24222,0,0,1
6352,24224,0,1,0
6353,24226,0,0,1
6354,24227,0,0,1
6355,24229,0,0,1
6356,24232,0,0,1
6357,24234,0,0,1
6358,24242,0,0,1
6359,24246,0,0,1
6360,24255,0,0,1
6361,24256,0,0,1
6362,24260,0,1,0
6363,24262,0,0,1
6364,24263,0,0,1
6365,24264,0,0,1
6366,24265,0,0,1
6367,24269,0,0,1
6368,24276,0,0,1
6369,24278,0,0,1
6370,24281,0,0,1
6371,24286,0,0,1
6372,24295,0,0,1
6373,24300,0,0,1
6374,24302,0,0,1
6375,24307,0,0,1
6376,24317,0,1,0
6377,24319,0,0,1
6378,24327,0,0,1
6379,24330,0,0,1
6380,24350,0,0,1
6381,24362,0,0,1
6382,24363,0,0,1
6383,24364,0,0,1
6384,24369,0,0,1
6385,24376,0,0,1
6386,24379,0,0,1
6387,24384,0,0,1
6388,24386,0,0,1
6389,24387,0,0,1
6390,24392,0,0,1
6391,24393,0,0,1
6392,24394,0,0,1
6393,24395,0,0,1
6394,24397,0,0,1
6395,24401,0,0,1
6396,24402,0,0,1
6397,24409,0,0,1
6398,24417,0,0,1
6399,24418,0,0,1
6400,24419,0,0,1
6401,24420,0,1,0
6402,24424,0,0,1
6403,24428,0,0,1
6404,24431,0,0,1
6405,24438,0,0,1
6406,24439,0,0,1
6407,24440,0,0,1
6408,24445,0,0,1
6409,24449,0,0,1
6410,24452,0,1,0
6411,24453,0,0,1
6412,24456,0,0,1
6413,24467,0,0,1
6414,24469,0,0,1
6415,24473,0,1,0
6416,24476,0,0,1
6417,24486,0,0,1
6418,24494,0,0,1
6419,24499,0,0,1
6420,24504,0,0,1
6421,24507,0,0,1
6422,24510,0,0,1
6423,24512,0,0,1
6424,24514,0,0,1
6425,24524,0,0,1
6426,24533,0,0,1
6427,24534,0,0,1
6428,24538,0,0,1
6429,24541,0,0,1
6430,24542,0,0,1
6431,24545,0,0,1
6432,24546,0,1,0
6433,24555,0,2,0
6434,24557,0,0,1
6435,24558,0,0,1
6436,24564,0,0,1
6437,24568,0,0,1
6438,24577,0,0,1
6439,24579,0,0,1
6440,24581,0,0,1
6441,24587,0,0,1
6442,24590,0,0,1
6443,24592,0,0,1
6444,24596,0,0,1
6445,24602,0,0,1
6446,24604,0,0,1
6447,24607,0,0,1
6448,24609,0,0,1
6449,24611,0,0,1
6450,24612,0,0,1
6451,24616,0,0,1
6452,24618,0,0,1
6453,24621,0,0,1
6454,24627,0,0,1
6455,24628,0,0,1
6456,24630,0,0,1
6457,24631,0,1,0
6458,24637,0,0,1
6459,24642,0,0,1
6460,24651,0,0,1
6461,24657,0,0,1
6462,24672,0,1,0
6463,24673,0,0,1
6464,24675,0,0,1
6465,24679,0,0,1
6466,24680,0,0,1
6467,24682,0,1,0
6468,24687,0,0,1
6469,24691,0,1,0
6470,24692,0,0,1
6471,24694,0,0,1
6472,24702,0,0,1
6473,24704,0,0,1
6474,24705,0,0,1
6475,24706,0,0,1
6476,24711,0,1,0
6477,24712,0,0,1
6478,24720,0,0,1
6479,24727,0,0,1
6480,24735,0,0,1
6481,24738,0,0,1
6482,24742,0,0,1
6483,24744,0,0,1
6484,24749,0,1,0
6485,24750,0,0,1
6486,24751,0,0,1
6487,24755,0,1,0
6488,24760,0,0,1
6489,24766,0,0,1
6490,24768,0,0,1
6491,24772,0,0,1
6492,24776,0,0,1
6493,24777,0,0,1
6494,24783,0,0,1
6495,24784,0,0,1
6496,24788,0,0,1
6497,24793,0,0,1
6498,24794,0,0,1
6499,24795,0,0,1
6500,24797,0,0,1
6501,24798,0,1,0
6502,24799,0,0,1
6503,24801,0,0,1
6504,24804,0,0,1
6505,24806,0,0,1
6506,24811,0,0,1
6507,24815,0,0,1
6508,24822,0,0,1
6509,24832,0,0,1
6510,24838,0,1,0
6511,24839,0,0,1
6512,24841,0,0,1
6513,24842,0,0,1
6514,24850,0,0,1
6515,24851,0,0,1
6516,24852,0,0,1
6517,24855,0,0,1
6518,24856,0,0,1
6519,24858,0,0,1
6520,24861,0,0,1
6521,24866,0,1,0
6522,24875,0,0,1
6523,24878,0,0,1
6524,24879,0,0,1
6525,24881,0,0,1
6526,24884,0,0,1
6527,24885,0,0,1
6528,24887,0,0,1
6529,24892,0,0,1
6530,24896,0,0,1
6531,24900,0,0,1
6532,24901,0,0,1
6533,24912,0,0,1
6534,24915,0,0,1
6535,24917,0,0,1
6536,24926,0,0,1
6537,24928,0,0,1
6538,24930,0,0,1
6539,24932,0,0,1
6540,24935,0,0,1
6541,24938,0,0,1
6542,24941,0,0,1
6543,24943,0,0,1
6544,24947,0,0,1
6545,24949,0,0,1
6546,24951,0,0,1
6547,24955,0,0,1
6548,24956,0,0,1
6549,24963,0,0,1
6550,24964,0,0,1
6551,24965,0,0,1
6552,24967,0,0,1
6553,24975,0,0,1
6554,24982,0,0,1
6555,24983,0,0,1
6556,24984,0,0,1
6557,24985,0,0,1
6558,24989,0,0,1
6559,24995,0,0,1
6560,24996,0,0,1
6561,25000,0,0,1
6562,25002,0,0,1
6563,25004,0,0,1
6564,25005,0,0,1
6565,25016,0,0,1
6566,25020,0,1,0
6567,25024,0,0,1
6568,25027,0,1,0
6569,25031,0,0,1
6570,25034,0,0,1
6571,25035,0,0,1
6572,25040,0,0,1
6573,25041,0,0,1
6574,25046,0,0,1
6575,25047,0,0,1
6576,25051,0,0,1
6577,25054,0,0,1
6578,25055,0,0,1
6579,25056,0,0,1
6580,25059,0,0,1
6581,25061,0,0,1
6582,25066,0,0,1
6583,25077,0,0,1
6584,25083,0,0,1
6585,25084,0,0,1
6586,25085,0,1,0
6587,25086,0,0,1
6588,25093,0,0,1
6589,25099,0,0,1
6590,25102,0,0,1
6591,25105,0,0,1
6592,25110,0,0,1
6593,25115,0,0,1
6594,25116,0,0,1
6595,25119,0,0,1
6596,25124,0,0,1
6597,25125,0,0,1
6598,25126,0,0,1
6599,25130,0,0,1
6600,25133,0,0,1
6601,25135,0,0,1
6602,25136,0,0,1
6603,25140,0,0,1
6604,25150,0,0,1
6605,25160,0,0,1
6606,25166,0,0,1
6607,25172,0,0,1
6608,25184,0,0,1
6609,25190,0,0,1
6610,25191,0,0,1
6611,25192,0,0,1
6612,25195,0,0,1
6613,25200,0,0,1
6614,25206,0,0,1
6615,25207,0,0,1
6616,25209,0,0,1
6617,25210,0,0,1
6618,25213,0,0,1
6619,25215,0,0,1
6620,25226,0,0,1
6621,25229,0,0,1
6622,25236,0,0,1
6623,25246,0,0,1
6624,25249,0,0,1
6625,25251,0,0,1
6626,25254,0,0,1
6627,25255,0,0,1
6628,25259,0,0,1
6629,25262,0,0,1
6630,25265,0,0,1
6631,25270,0,0,1
6632,25275,0,0,1
6633,25281,0,0,1
6634,25282,0,0,1
6635,25283,0,0,1
6636,25287,0,0,1
6637,25289,0,0,1
6638,25290,0,0,1
6639,25306,0,0,1
6640,25311,0,0,1
6641,25314,0,0,1
6642,25319,0,0,1
6643,25324,0,0,1
6644,25331,0,1,0
6645,25332,0,3,0
6646,25335,0,0,1
6647,25341,0,1,0
6648,25353,0,0,1
6649,25355,0,0,1
6650,25360,0,1,0
6651,25366,0,0,1
6652,25368,0,0,1
6653,25375,0,0,1
6654,25382,0,0,1
6655,25383,0,0,1
6656,25390,0,0,1
6657,25391,0,0,1
6658,25395,0,0,1
6659,25408,0,0,1
6660,25410,0,0,1
6661,25429,0,0,1
6662,25432,0,0,1
6663,25437,0,0,1
6664,25438,0,0,1
6665,25443,0,0,1
6666,25450,0,0,1
6667,25451,0,0,1
6668,25453,0,0,1
6669,25457,0,0,1
6670,25461,0,2,0
6671,25462,0,0,1
6672,25468,0,0,1
6673,25471,0,0,1
6674,25474,0,0,1
6675,25475,0,0,1
6676,25476,0,0,1
6677,25478,0,0,1
6678,25480,0,0,1
6679,25481,0,0,1
6680,25490,0,1,0
6681,25491,0,0,1
6682,25492,0,0,1
6683,25495,0,0,1
6684,25499,0,0,1
6685,25503,0,0,1
6686,25504,0,0,1
6687,25505,0,0,1
6688,25506,0,0,1
6689,25511,0,0,1
6690,25512,0,0,1
6691,25513,0,0,1
6692,25515,0,3,0
6693,25522,0,0,1
6694,25524,0,0,1
6695,25529,0,0,1
6696,25531,0,0,1
6697,25533,0,0,1
6698,25535,0,0,1
6699,25542,0,0,1
6700,25548,0,0,1
6701,25550,0,0,1
6702,25557,0,0,1
6703,25564,0,0,1
6704,25568,0,0,1
6705,25578,0,0,1
6706,25582,0,0,1
6707,25616,0,0,1
6708,25618,0,0,1
6709,25619,0,0,1
6710,25620,0,0,1
6711,25622,0,0,1
6712,25623,0,0,1
6713,25625,0,0,1
6714,25628,0,0,1
6715,25638,0,0,1
6716,25640,0,0,1
6717,25641,0,0,1
6718,25643,0,0,1
6719,25646,0,0,1
6720,25648,0,0,1
6721,25652,0,0,1
6722,25653,0,0,1
6723,25654,0,0,1
6724,25656,0,1,0
6725,25657,0,0,1
6726,25662,0,1,0
6727,25663,0,0,1
6728,25666,0,0,1
6729,25670,0,0,1
6730,25677,0,0,1
6731,25679,0,0,1
6732,25681,0,0,1
6733,25684,0,0,1
6734,25685,0,0,1
6735,25687,0,0,1
6736,25692,0,0,1
6737,25695,0,0,1
6738,25697,0,1,0
6739,25698,0,0,1
6740,25699,0,0,1
6741,25704,0,0,1
6742,25705,0,0,1
6743,25708,0,0,1
6744,25711,0,0,1
6745,25718,0,0,1
6746,25720,0,0,1
6747,25721,0,0,1
6748,25730,0,0,1
6749,25736,0,0,1
6750,25740,0,0,1
6751,25742,0,0,1
6752,25745,0,0,1
6753,25749,0,0,1
6754,25755,0,0,1
6755,25759,0,0,1
6756,25763,0,0,1
6757,25765,0,0,1
6758,25771,0,1,0
6759,25774,0,0,1
6760,25777,0,0,1
6761,25778,0,0,1
6762,25780,0,0,1
6763,25783,0,0,1
6764,25786,0,0,1
6765,25795,0,0,1
6766,25796,0,1,0
6767,25797,0,0,1
6768,25801,0,0,1
6769,25807,0,0,1
6770,25809,0,0,1
6771,25812,0,0,1
6772,25816,0,0,1
6773,25820,0,0,1
6774,25834,0,0,1
6775,25841,0,0,1
6776,25846,0,0,1
6777,25847,0,0,1
6778,25850,0,0,1
6779,25851,0,1,0
6780,25853,0,0,1
6781,25857,0,0,1
6782,25858,0,0,1
6783,25860,0,0,1
6784,25861,0,0,1
6785,25867,0,0,1
6786,25879,0,0,1
6787,25888,0,0,1
6788,25891,0,0,1
6789,25894,0,0,1
6790,25896,0,0,1
6791,25898,0,0,1
6792,25899,0,0,1
6793,25900,0,0,1
6794,25903,0,0,1
6795,25904,0,0,1
6796,25905,0,1,0
6797,25908,0,0,1
6798,25909,0,0,1
6799,25911,0,0,1
6800,25913,0,0,1
6801,25933,0,0,1
6802,25937,0,0,1
6803,25938,0,0,1
6804,25940,0,0,1
6805,25942,0,0,1
6806,25943,0,0,1
6807,25946,0,0,1
6808,25947,0,0,1
6809,25948,0,0,1
6810,25955,0,0,1
6811,25959,0,0,1
6812,25964,0,0,1
6813,25966,0,0,1
6814,25972,0,0,1
6815,25974,0,0,1
6816,25976,0,0,1
6817,25981,0,1,0
6818,25982,0,0,1
6819,25990,0,0,1
6820,25992,0,0,1
6821,25993,0,0,1
6822,26006,0,0,1
6823,26014,0,0,1
6824,26016,0,2,0
6825,26027,0,0,1
6826,26029,0,0,1
6827,26030,0,0,1
6828,26031,0,1,0
6829,26032,0,0,1
6830,26035,0,0,1
6831,26036,0,0,1
6832,26037,0,0,1
6833,26042,0,0,1
6834,26046,0,0,1
6835,26048,0,0,1
6836,26049,0,0,1
6837,26050,0,0,1
6838,26056,0,0,1
6839,26057,0,0,1
6840,26059,0,0,1
6841,26066,0,0,1
6842,26070,0,0,1
6843,26073,0,0,1
6844,26074,0,0,1
6845,26076,0,0,1
6846,26078,0,0,1
6847,26081,0,0,1
6848,26084,0,0,1
6849,26089,0,0,1
6850,26092,0,0,1
6851,26100,0,0,1
6852,26101,0,0,1
6853,26102,0,0,1
6854,26105,0,0,1
6855,26107,0,0,1
6856,26109,0,0,1
6857,26111,0,0,1
6858,26112,0,0,1
6859,26114,0,0,1
6860,26120,0,0,1
6861,26133,0,0,1
6862,26139,0,0,1
6863,26141,0,0,1
6864,26150,0,0,1
6865,26154,0,0,1
6866,26167,0,1,0
6867,26170,0,0,1
6868,26174,0,0,1
6869,26180,0,0,1
6870,26191,0,1,0
6871,26198,0,0,1
6872,26204,0,0,1
6873,26208,0,0,1
6874,26209,0,0,1
6875,26213,0,0,1
6876,26215,0,0,1
6877,26218,0,0,1
6878,26219,0,0,1
6879,26229,0,0,1
6880,26230,0,0,1
6881,26232,0,0,1
6882,26242,0,0,1
6883,26247,0,0,1
6884,26250,0,0,1
6885,26251,0,0,1
6886,26255,0,0,1
6887,26257,0,0,1
6888,26261,0,0,1
6889,26272,0,0,1
6890,26273,0,0,1
6891,26275,0,0,1
6892,26276,0,0,1
6893,26278,0,0,1
6894,26282,0,0,1
6895,26283,0,0,1
6896,26286,0,0,1
6897,26287,0,0,1
6898,26293,0,0,1
6899,26297,0,0,1
6900,26298,0,0,1
6901,26299,0,0,1
6902,26304,0,0,1
6903,26308,0,0,1
6904,26310,0,1,0
6905,26315,0,0,1
6906,26319,0,0,1
6907,26322,0,0,1
6908,26324,0,0,1
6909,26329,0,0,1
6910,26334,0,0,1
6911,26336,0,0,1
6912,26341,0,0,1
6913,26342,0,0,1
6914,26347,0,0,1
6915,26349,0,0,1
6916,26350,0,0,1
6917,26351,0,0,1
6918,26352,0,0,1
6919,26362,0,0,1
6920,26372,0,0,1
6921,26375,0,2,0
6922,26379,0,0,1
6923,26380,0,0,1
6924,26385,0,0,1
6925,26387,0,1,0
6926,26400,0,0,1
6927,26409,0,0,1
6928,26414,0,0,1
6929,26417,0,0,1
6930,26421,0,0,1
6931,26422,0,0,1
6932,26423,0,0,1
6933,26424,0,0,1
6934,26425,0,0,1
6935,26426,0,0,1
6936,26429,0,0,1
6937,26437,0,0,1
6938,26440,0,0,1
6939,26442,0,0,1
6940,26443,0,0,1
6941,26444,0,0,1
6942,26445,0,1,0
6943,26447,0,0,1
6944,26448,0,0,1
6945,26449,0,1,0
6946,26451,0,0,1
6947,26453,0,0,1
6948,26464,0,0,1
6949,26466,0,0,1
6950,26467,0,0,1
6951,26473,0,0,1
6952,26477,0,0,1
6953,26482,0,0,1
6954,26488,0,0,1
6955,26489,0,0,1
6956,26490,0,0,1
6957,26491,0,0,1
6958,26499,0,0,1
6959,26503,0,2,0
6960,26519,0,0,1
6961,26520,0,0,1
6962,26524,0,0,1
6963,26530,0,0,1
6964,26535,0,0,1
6965,26538,0,1,0
6966,26540,0,0,1
6967,26541,0,0,1
6968,26548,0,0,1
6969,26549,0,0,1
6970,26553,0,0,1
6971,26564,0,0,1
6972,26570,0,0,1
6973,26571,0,0,1
6974,26582,0,0,1
6975,26583,0,0,1
6976,26589,0,0,1
6977,26593,0,0,1
6978,26600,0,0,1
6979,26603,0,0,1
6980,26605,0,0,1
6981,26606,0,0,1
6982,26613,0,0,1
6983,26614,0,0,1
6984,26618,0,0,1
6985,26619,0,0,1
6986,26623,0,0,1
6987,26625,0,0,1
6988,26627,0,0,1
6989,26628,0,0,1
6990,26631,0,0,1
6991,26632,0,0,1
6992,26634,0,0,1
6993,26638,0,0,1
6994,26639,0,0,1
6995,26642,0,0,1
6996,26643,0,0,1
6997,26653,0,0,1
6998,26656,0,0,1
6999,26657,0,0,1
7000,26659,0,0,1
7001,26661,0,0,1
7002,26667,0,0,1
7003,26670,0,0,1
7004,26671,0,0,1
7005,26675,0,0,1
7006,26680,0,0,1
7007,26682,0,0,1
7008,26684,0,0,1
7009,26685,0,0,1
7010,26689,0,0,1
7011,26690,0,0,1
7012,26691,0,0,1
7013,26694,0,0,1
7014,26695,0,0,1
7015,26699,0,0,1
7016,26702,0,0,1
7017,26705,0,1,0
7018,26709,0,0,1
7019,26718,0,1,0
7020,26722,0,0,1
7021,26726,0,0,1
7022,26732,0,0,1
7023,26739,0,0,1
7024,26742,0,1,0
7025,26744,0,0,1
7026,26751,0,0,1
7027,26752,0,0,1
7028,26755,0,0,1
7029,26756,0,0,1
7030,26760,0,0,1
7031,26761,0,0,1
7032,26762,0,0,1
7033,26766,0,0,1
7034,26768,0,0,1
7035,26777,0,0,1
7036,26778,0,1,0
7037,26786,0,0,1
7038,26792,0,0,1
7039,26801,0,0,1
7040,26805,0,0,1
7041,26813,0,0,1
7042,26815,0,0,1
7043,26818,0,0,1
7044,26825,0,0,1
7045,26826,0,0,1
7046,26827,0,0,1
7047,26828,0,0,1
7048,26832,0,0,1
7049,26833,0,0,1
7050,26839,0,0,1
7051,26864,0,0,1
7052,26866,0,0,1
7053,26867,0,0,1
7054,26868,0,0,1
7055,26869,0,0,1
7056,26872,0,0,1
7057,26874,0,0,1
7058,26875,0,0,1
7059,26877,0,0,1
7060,26881,0,0,1
7061,26885,0,0,1
7062,26890,0,0,1
7063,26892,0,0,1
7064,26899,0,0,1
7065,26904,0,0,1
7066,26907,0,0,1
7067,26910,0,0,1
7068,26913,0,0,1
7069,26914,0,0,1
7070,26919,0,1,0
7071,26925,0,0,1
7072,26931,0,0,1
7073,26932,0,0,1
7074,26935,0,0,1
7075,26940,0,0,1
7076,26942,0,0,1
7077,26943,0,0,1
7078,26946,0,0,1
7079,26948,0,1,0
7080,26956,0,0,1
7081,26959,0,1,0
7082,26966,0,0,1
7083,26975,0,0,1
7084,26979,0,0,1
7085,26986,0,0,1
7086,26987,0,0,1
7087,26990,0,0,1
7088,26993,0,0,1
7089,27009,0,0,1
7090,27013,0,0,1
7091,27019,0,0,1
7092,27021,0,0,1
7093,27022,0,0,1
7094,27026,0,1,0
7095,27027,0,0,1
7096,27035,0,0,1
7097,27038,0,0,1
7098,27042,0,0,1
7099,27044,0,0,1
7100,27045,0,0,1
7101,27048,0,0,1
7102,27051,0,0,1
7103,27069,0,0,1
7104,27071,0,1,0
7105,27075,0,0,1
7106,27077,0,0,1
7107,27078,0,0,1
7108,27081,0,0,1
7109,27085,0,0,1
7110,27090,0,2,0
7111,27091,0,0,1
7112,27093,0,0,1
7113,27094,0,1,0
7114,27095,0,0,1
7115,27096,0,0,1
7116,27097,0,0,1
7117,27099,0,0,1
7118,27102,0,0,1
7119,27108,0,0,1
7120,27110,0,0,1
7121,27111,0,0,1
7122,27116,0,0,1
7123,27124,0,0,1
7124,27125,0,0,1
7125,27130,0,0,1
7126,27140,0,0,1
7127,27141,0,0,1
7128,27142,0,0,1
7129,27144,0,0,1
7130,27145,0,0,1
7131,27147,0,0,1
7132,27154,0,0,1
7133,27157,0,0,1
7134,27160,0,0,1
7135,27165,0,0,1
7136,27167,0,0,1
7137,27169,0,1,0
7138,27171,0,0,1
7139,27172,0,0,1
7140,27178,0,0,1
7141,27183,0,0,1
7142,27184,0,0,1
7143,27187,0,0,1
7144,27189,0,0,1
7145,27190,0,0,1
7146,27192,0,0,1
7147,27195,0,0,1
7148,27200,0,0,1
7149,27201,0,0,1
7150,27205,0,0,1
7151,27206,0,0,1
7152,27208,0,0,1
7153,27209,0,0,1
7154,27213,0,0,1
7155,27223,0,0,1
7156,27226,0,0,1
7157,27227,0,0,1
7158,27229,0,0,1
7159,27236,0,0,1
7160,27237,0,0,1
7161,27240,0,0,1
7162,27241,0,0,1
7163,27246,0,0,1
7164,27252,0,0,1
7165,27259,0,0,1
7166,27270,0,0,1
7167,27271,0,0,1
7168,27273,0,0,1
7169,27276,0,0,1
7170,27279,0,0,1
7171,27280,0,0,1
7172,27286,0,0,1
7173,27289,0,0,1
7174,27292,0,2,0
7175,27295,0,0,1
7176,27297,0,0,1
7177,27300,0,0,1
7178,27304,0,0,1
7179,27313,0,0,1
7180,27316,0,0,1
7181,27319,0,0,1
7182,27321,0,0,1
7183,27322,0,0,1
7184,27328,0,0,1
7185,27329,0,0,1
7186,27333,0,0,1
7187,27336,0,0,1
7188,27342,0,0,1
7189,27352,0,0,1
7190,27361,0,0,1
7191,27366,0,0,1
7192,27373,0,3,0
7193,27376,0,0,1
7194,27382,0,0,1
7195,27385,0,0,1
7196,27386,0,0,1
7197,27389,0,0,1
7198,27390,0,0,1
7199,27391,0,0,1
7200,27396,0,0,1
7201,27400,0,0,1
7202,27402,0,0,1
7203,27403,0,0,1
7204,27405,0,0,1
7205,27408,0,0,1
7206,27415,0,0,1
7207,27417,0,0,1
7208,27420,0,0,1
7209,27421,0,0,1
7210,27422,0,0,1
7211,27423,0,0,1
7212,27424,0,0,1
7213,27426,0,0,1
7214,27427,0,0,1
7215,27429,0,0,1
7216,27437,0,0,1
7217,27442,0,0,1
7218,27443,0,0,1
7219,27456,0,0,1
7220,27458,0,0,1
7221,27462,0,0,1
7222,27463,0,0,1
7223,27479,0,0,1
7224,27480,0,0,1
7225,27483,0,0,1
7226,27495,0,0,1
7227,27497,0,0,1
7228,27500,0,0,1
7229,27505,0,0,1
7230,27506,0,1,0
7231,27508,0,0,1
7232,27520,0,0,1
7233,27522,0,0,1
7234,27529,0,0,1
7235,27530,0,0,1
7236,27531,0,0,1
7237,27535,0,0,1
7238,27538,0,0,1
7239,27541,0,0,1
7240,27549,0,0,1
7241,27551,0,0,1
7242,27552,0,0,1
7243,27559,0,0,1
7244,27561,0,0,1
7245,27569,0,0,1
7246,27576,0,0,1
7247,27578,0,0,1
7248,27581,0,0,1
7249,27582,0,0,1
7250,27583,0,0,1
7251,27584,0,0,1
7252,27585,0,0,1
7253,27588,0,0,1
7254,27589,0,0,1
7255,27593,0,0,1
7256,27594,0,0,1
7257,27595,0,0,1
7258,27604,0,0,1
7259,27606,0,0,1
7260,27608,0,0,1
7261,27609,0,0,1
7262,27613,0,2,0
7263,27620,0,0,1
7264,27627,0,0,1
7265,27629,0,0,1
7266,27638,0,0,1
7267,27642,0,0,1
7268,27643,0,0,1
7269,27645,0,0,1
7270,27647,0,0,1
7271,27653,0,0,1
7272,27654,0,3,0
7273,27655,0,0,1
7274,27656,0,0,1
7275,27663,0,0,1
7276,27665,0,0,1
7277,27666,0,1,0
7278,27667,0,0,1
7279,27673,0,0,1
7280,27676,0,0,1
7281,27678,0,3,0
7282,27682,0,1,0
7283,27693,0,1,0
7284,27695,0,0,1
7285,27696,0,0,1
7286,27698,0,0,1
7287,27700,0,4,0
7288,27701,0,0,1
7289,27702,0,0,1
7290,27703,0,0,1
7291,27707,0,0,1
7292,27708,0,0,1
7293,27710,0,0,1
7294,27714,0,0,1
